18.23
14.96
4.61
-1.04
-5.3
-9.67
3.43
-6.76
-12.86
-16.88
-27.28
-17.05
-1.91
2.34
13.55
12.42
8.86
15.29
14.48
19.46
14.74
5.26
3.26
-3.87
-0.37
7.22
-1.07
-11.53
-10.06
-5.93
-9.62
-16.75
-29.46
-19.17
13.24
23.8
9.09
-0.54
7.24
3.93
4.6
-0.05
2.14
2.56
-2.96
-10.61
-1.57
-6.69
-10.74
-49.49
-46.56
-13.08
8.05
15.18
10.1
1.07
-7.3
-4.76
-6.21
2.92
9.73
18.83
22.12
21.73
-0.76
-6.1
-27.03
-39.74
-31.26
-29.79
-26.14
-66.86
-136.88
-115.94
-64.59
-90.03
-82.19
21.81
28.14
5.55
40.11
68.77
56.9
-17.18
-112.41
-160.34
-62.01
18.14
65.82
53.07
42.34
7.16
-7.58
-8.34
17.09
18.71
11.22
29.27
0.5
-20.39
-15.4
-34.84
-8.29
59.82
58.55
20.74
8.11
-20.47
-50.91
-15.41
30.49
52.37
65.67
49.35
39.51
42.75
38.62
5.26
-10.02
-5.25
1.88
2.86
25.9
25.25
25.08
-8.59
-21.09
-16.99
-7.62
20.99
25.71
3.61
5.19
23.15
27.44
25.46
14.7
11.73
28.23
23.97
-3.34
-22.23
-15.27
1.82
-6.02
-12.1
-3.22
-23.45
-22.13
-7.31
-7.17
-6.67
4.58
8.23
10.8
14.59
21.55
-4.65
-57.83
-52.65
14.98
66.08
62.97
44.3
5.58
-1.11
3.87
-15.05
-10.49
4.84
-13.6
-42.71
-27.03
3.22
9.41
-2.23
-4.2
-21.21
-16.93
-1.3
7.23
15.96
35.28
-2.16
-29.62
-37.09
-56.75
-36.44
6.21
43.46
26.66
-0.72
-9.48
-10.19
-20.9
-8.51
-2.62
-12.24
10.22
33.41
24.35
24.48
21.05
26.82
21.9
-6.67
-47.99
-80.21
-69.87
-14.58
26.74
37.59
26.27
2.26
-27.72
-38.02
-21.45
3.45
19.15
-9.6
0.23
13.46
32.75
23.85
15.59
19.76
9.91
-21.49
-36.42
-26.05
-12.2
1.24
3.75
-3.89
-27.06
-22.36
-40.86
-47.97
-24.22
35.45
19.19
15.84
26.79
29.32
28.63
35.88
43.61
36.89
8.96
-9.2
-14.83
-40.65
-57.63
0.24
9.68
-20.37
-28.25
-19.14
17.11
16.08
-6.63
-17.87
14.68
19.03
36.81
19.24
1.21
-15.39
-41.99
-41.57
-9.6
-17.11
-21.05
6.52
-8.74
-9.92
27.96
29.58
26.41
-18.01
-46.38
0.09
45.11
10.22
-84.02
-75.18
21.72
52.78
46.68
15.12
8.09
4.38
-13.78
-26.77
-28.39
-9.27
8.91
19.59
12.2
-7.38
12.94
21.41
42.92
38.23
15.7
8.57
14.58
16.16
-1.21
-23.44
-28.51
-42.24
-33.93
-1.82
11.36
33.84
31.33
20.48
-1.61
9.87
11.05
11.79
4.71
-6.31
0.92
10.17
-8.83
-32.78
-35.13
-53.76
-68.8
-76.57
-26.38
72.44
38.66
-25.65
-33.92
-21.98
-17.41
9.9
38.6
-14.62
-113.7
-82.31
40.31
81.64
58.67
27.07
31.18
29.31
36.8
7.4
-1.56
-1.17
6.22
20.86
21.87
8.78
-40.24
-106.94
-63.7
9.85
76.14
60.46
46.32
22.03
-20.05
-21.64
37.12
61.3
38.53
22.01
-51.11
-124.64
-57.87
-36.12
-39.56
-16.81
26.32
18.34
9.36
-27.66
-17.75
-31.28
-13.03
42.51
37.35
-6.86
-4.1
7.51
36.55
18.53
-21.98
-47.36
-44.18
37.72
56.25
18.54
-17.65
-12.51
2.49
0.19
7.61
68.82
27.27
-54.74
-89.71
-49.29
-54.42
-57.34
-3.9
37.54
65.75
44.85
12.02
-3.98
-21.9
-22.73
-14.78
-57.1
-49.62
16.48
22.99
3.6
30.05
27.97
-85.25
-81.29
-8.38
9.45
62.45
82.45
32.81
6.81
2.96
8.14
7.06
-23.24
-75.04
-42.61
13.18
-7.11
-2.85
9.72
-9.94
-70.36
-46.68
30.55
68.92
42.04
25.5
31.97
-25.34
-83.83
-25.87
-1.78
-30.13
-13.34
26.63
23.9
19.27
16.62
-5.13
-37.21
-67.96
-79.52
-59.37
-19.5
20.82
75.31
39.22
-33.58
5.26
0.36
-0.27
75.81
59.78
26.05
15.74
-47.71
-142.99
-91.44
28.13
60.67
65.71
68.6
46.81
48.16
31.27
-41.8
-43.06
13.54
36.93
11.02
-85.74
-95.96
-42.16
-29.83
-26.58
39.57
42.84
-54.42
4.42
65.11
24.72
35.52
47.19
45.68
45.31
20.99
3.94
0.17
21.37
11.93
4.99
-5.03
-25.87
-55.41
-71.76
-129.98
-81.52
-2.99
44.88
-8.41
-133.88
-82.32
2.17
54.27
80.27
76.79
75.12
50.48
46.52
30.88
-17.44
-100.93
-149.16
-62.38
84.77
66.05
-21.29
-32.46
12.1
8.2
-3.98
-37.17
-34.19
-14.17
-24.91
-11.58
5.09
87.02
88.22
68.32
16.61
-52.28
-88.09
-124.65
-124.44
-38.28
-28.91
80.43
131.83
63.73
-4.49
-53.03
-47.53
-34.78
-5.67
76.75
83.19
-4.05
-38.69
9.3
54.03
76.77
32.26
-26.15
-9.79
-2.78
-18.94
-61.53
-76.71
-25.01
-36.7
-62.9
18.88
75.84
87.4
81.89
86.96
10.93
-168.48
-198.65
9.74
112.2
118.89
56.7
-1.25
-19.64
-48.46
-44.89
-34.78
-86.13
-81.57
-87.12
-86.74
-7.69
69.79
117.55
132.43
110.03
62.03
-8.78
-72.05
-76.75
6.79
14.36
-36.39
9.22
43.49
18.71
-30.83
-23.09
-27.75
-37.63
-33.72
-78.2
-11.63
93.37
94.69
61.77
30.45
-19.05
-40.01
-9.37
17.67
21.25
-121.72
-197.29
-63.2
82.24
73.73
20.16
-9.18
-2.44
-22.24
-77.39
-150.38
-144.18
10
96.79
90.33
65.41
49.1
-44.26
-95.27
33.58
110.45
72.98
39.67
30
-3.22
1.47
-10.42
-2.33
-24.52
-23.16
21.8
11.25
-5.91
-65.61
-129.76
-133.49
-35.5
31.1
82.71
65.61
39.67
34.14
14.78
1.76
-34.71
-37.44
-41.29
15.52
55.78
26.61
-9.33
-21.5
6.63
19.14
-34.86
-61.81
21.08
8.63
-69.8
-166.04
-141.23
-99.17
-112.68
-66.5
46.75
154.64
146.53
110.07
78.02
51.78
29.27
21.86
4.71
14.53
35.73
7.23
-62.44
-49.86
-3.01
5.68
-11.18
14.21
60.44
9.46
-22.38
42.83
41.01
-14.56
-108.83
-139.69
-77.9
17.25
71.85
1.38
-56.7
20.15
44.07
2.66
-5.39
14.21
26.49
33.94
-19.39
4.77
82.06
69.17
-41.82
-96.79
-25.1
-6.27
-31.94
21.67
65.43
53.98
16.63
-30.52
-135.92
-195.42
-112.49
58.7
100.58
103.96
136.38
101.02
32.46
-23.29
-35.29
-86.27
-145.92
-49.12
84.35
52.6
-35.33
-34.53
21.44
-45.39
-117.77
-85.84
-33.97
43.46
86.48
119.51
89.93
36.68
5.4
-10.4
-3.92
34.05
46.33
-17.11
-117.78
-158
-79.85
6.37
58.79
83.28
49.86
88.05
67.29
27.59
7.64
-26.12
-31.55
-94.98
-152.96
-120.9
-3.71
102.19
126.22
70.45
38.82
2.22
-71.46
-123.96
-66.96
35.75
100.03
14.44
-102
-57.45
46.37
76.02
53.02
-48.31
-56.14
29.06
54.77
10.03
8.61
32.96
10.35
-5.28
-19.27
26.04
70.36
55.2
11.13
-21.77
-38.58
-23.49
-73.99
-163.23
-131.29
-62.18
107.48
131.45
114.67
84.62
27.74
6.64
2.97
8.15
-24.86
-93.77
-99.53
-76.92
-38.35
39.2
60.78
86.14
73.28
43.89
-44.5
-42.78
39.41
85.03
64.92
29.25
-1.28
-61.15
-118.86
-99.05
-33.74
-29.85
-23.61
53.04
-101.41
-245.98
-101.25
96
178.39
161.84
108.91
48.25
34.9
50.37
41.3
17.93
-4.5
7.35
5.52
-57.56
-68.07
-12.85
-0.22
-20.75
-9.08
19.06
-22.43
-115.62
-113.02
-71.27
-115.02
-23.58
115.6
72.48
-30.29
-67.23
-89.39
38.48
142.96
96.39
25.51
13.99
33.37
15.82
-58.9
-45.41
-33.05
13.06
90.1
64.77
2.75
-32.31
-28.05
37.23
64.68
30.36
-23.06
-46.95
-14.75
32.46
-41.37
-136.21
-104.34
-22.24
75.28
74.43
93.09
80.2
9.51
5.72
6.35
14.9
36.89
-34.19
-141.2
-134.16
-41.61
18.48
-6.87
-101.22
-103
25.09
113.58
85.39
37
-41.27
-23.53
-7.19
2.1
60.52
96.97
62.8
-4.36
-10.05
-14.51
-50.58
-14.74
-35.62
-116.24
-77.19
63.81
81.86
21.05
-13.35
-35.01
-128.33
-229.5
-219.7
66.37
209.93
170.18
98.25
43.32
10.82
10.05
14.67
-16.2
-50.92
-63.02
-3.69
-53.14
-27.61
70.89
93.92
31.8
-9.9
-4.96
-6.97
55.1
101.64
13.95
-71.09
-120.96
-114.58
3.27
108.29
117.13
65.49
34.68
-71.46
-212.63
-162.25
-72.52
1.79
-4.23
15.67
71.56
76.55
32.59
30.83
37.18
-60.15
-152.39
-141.86
-43.42
-149.15
-85.76
173.79
244.07
162.15
86.24
31.91
21.82
11.45
-46.31
-103.32
-137.98
-128.1
-56.22
43.72
104.6
128.93
114.9
33.83
-13.82
10.05
42
-37.55
-75.16
-32.62
-21.76
-21.21
-20.85
-43.35
-62.36
-58.93
-6.42
5.89
85.4
113.86
61.35
-36.14
-73.52
-21.66
39.21
25.45
-19.97
-170.73
-294.38
-61.3
197.1
182.44
121.73
96.63
44.85
7.75
0.99
13.86
12.3
-20.38
9.51
42.19
51.43
63.96
-21.38
-168.56
-259.61
-50.74
83.74
-18.08
-34.19
-27.94
-84.28
-29.62
9.11
21.69
6.4
13.96
54.03
61.89
-21.48
-190.48
-98.34
140.9
203.8
72.19
2.08
58.2
30.78
-9.68
-26.04
-35.11
-9.29
22.68
15.16
-1.96
-83.37
-158.21
-130.97
-127.52
-51.48
44.26
114.13
158.5
156.99
94.84
34.14
32.04
13.42
-49.62
-121.41
-147.97
-103.4
-177.99
-48.53
110.09
151.52
126.56
72.24
19.28
-14.69
-6.21
-50.93
-48.98
-31.14
-75.56
-123.3
-170.5
-86.34
47.87
119.18
90.61
-45.88
-82.56
-0.56
33.82
0.85
39.84
55.86
8.24
-24.47
-65.07
-50.19
39.2
61.45
-12.55
-59.89
-31.43
9.31
-10.95
35.25
66.31
66.05
68.54
67.98
54.81
-10.52
-110.26
-111.85
-21.12
33.37
2.76
-151.56
-295.41
-164.2
158.86
280.85
167.79
31.93
-51.62
-151.74
-213.91
74.45
272.59
151.27
5.47
-24.88
41.11
31.91
10.18
5.65
-46.15
-74.96
-170.03
-184.27
-63.53
140.91
170.88
99.35
111.15
107.89
41.02
-123.05
-260.06
-141.7
70.42
118.07
69.77
7.03
-59.5
-109.37
-180.47
-88.13
137.27
157.91
105.16
70.35
71.73
79.07
42.35
-3.93
-20.7
-83.72
-169.29
-155.83
-153.49
-98.5
80.93
90.08
-36.68
-27.55
14.79
57.31
108.74
110.6
74.61
66.53
8.01
-107.57
-65.02
23.85
46.4
47.38
46.64
-19.79
-48.57
-39.07
-46.62
-41.45
12.95
11.13
8.85
-42.12
-101.21
-93.89
-62.19
15.3
97.71
104.67
87.69
44.7
8.64
-4.02
30.64
30.25
7.16
-60.04
-147.65
-141.41
-137.36
-105.22
18.46
98.69
165.59
133.42
89.76
32.56
-11.73
15.1
32.57
15.01
8.51
-85.06
-278.69
-317.91
-61.45
128.13
69.85
80.57
97.05
58.23
65.99
80.67
61.12
7.79
-44.23
-22.66
17.86
-50.87
-243.37
-159.08
96.81
69.57
-100.55
-261.85
-151.76
162.22
253.49
151.25
13.55
49.12
88.13
15.48
49.89
94.94
75.18
21.75
-52.31
-73.85
-70.74
4.31
102.9
66.44
37.61
51.65
37.18
28.03
37.42
-30.07
-79.32
-119.56
-183.91
-100.74
12.44
23.81
-45.68
-6.76
65.49
-18.11
-82.27
-27.77
35.18
23.83
35.51
-3.52
-35.73
-21.95
-32.26
-18.67
-35.03
-74.19
4.91
18.56
-43.09
-8.07
99.49
90.57
-18.19
-50.38
31.03
64.86
56.13
19.66
-55
-107.67
-19.1
22.06
-149.67
-297.34
-141.3
117.53
249.92
217.13
148.92
33.36
24.73
76.1
68.37
43.21
-8.53
-77.63
-74.55
-16.16
40.6
42.39
29.92
-14.45
-117.64
-106.77
-36.33
9.66
-29.64
-97.59
-95.02
-58.29
34.54
43.85
-7.28
-168.73
-183.11
69.32
174.6
144.97
91.85
41.53
-52.01
-27.59
83.52
127.39
105.23
68
41.91
15.7
7.46
-13.19
-78.08
-119
-70.66
-75.37
-64.54
-17.41
-1.29
-93.75
-144.62
-34.43
24.01
49.56
128.92
135.5
74.16
26.23
-2.25
-23.26
-14.55
-104.58
-403.65
-396.84
30.48
252.68
296.67
158.05
58.27
72.3
91.62
91.5
74.55
41.93
-71.09
-190.29
-176.08
-42.81
24.37
20.6
16.38
-20.55
2.32
109.5
115.2
5.57
-133.8
-140.07
-6.44
96.05
43.18
20.91
6.28
9.73
33.99
-88.96
-123.27
-99.5
-138.28
-27.36
188.03
200.47
66.42
24.61
48.81
27.69
11.23
-53.57
-123.17
-111.76
18.42
86.84
112.4
50.36
-39.94
-75.53
-7.88
55.56
72.84
16.31
-9.6
4.46
-29.71
-143.01
-262
-231.89
-53.11
122.15
109.84
57.38
-6.87
-62.31
-48.83
-74.56
-72.36
4.42
74.22
37.92
16.56
92.66
119.29
23.68
-4.75
11.41
29.51
-21.18
-162.5
-78.21
99.51
118.91
76.31
51.49
76.09
69.48
-50.43
-96.55
-38.11
2.02
45.97
40.93
18.67
-4.16
-66.39
-106.02
-72.37
-112.13
-87.02
-98.53
-113.56
21.63
210.82
173.36
57.25
41.13
67.15
47.38
27.05
9.31
-86.11
-248.36
-271.48
-88.12
133.81
171.93
128.14
105.01
81.82
47.88
-91.82
-156.92
-7.27
67.25
-161.15
-294.86
-20.22
247.83
193.81
71.54
45.84
1.81
13.85
12.58
9.55
8.4
34.14
38.34
-22.27
-102.47
-240.5
-369.59
-69.12
242.63
219.49
65.03
-33.43
-57.33
-10.43
66.62
65.1
51.58
55.83
4.71
-191.74
-449.22
-405.33
-165.23
223.75
378.04
292.34
187.62
74.22
35.73
20.14
10.62
5.7
21.61
-6.18
-80.84
-59.39
-27.01
-92.55
-23.46
72.29
67.89
39.24
23.31
24.77
0.85
-15.35
-81.63
-72.2
38.24
-34.32
-213.76
-189.5
43.48
94.16
3.22
-6.76
72.53
24.3
-24.9
-14.05
-8.55
-1.58
-6.77
1.42
40.63
98.73
164.19
116.1
62.78
14.47
16.05
18.84
-83
-195.33
-69.19
34.49
53.62
75.23
69.52
60.67
38.02
-22.74
-35.62
-35.15
-104.56
-96.82
7.52
32.24
38.74
50.8
18.63
-53.21
-90.82
-69.85
-23.34
-20.65
-4.68
-26.77
-27.35
-25.42
-18.84
-12.57
72.17
89.07
67.72
46.37
3.55
-50.66
-63.22
2.79
19.64
8.51
-5.87
-5.07
-6.25
1.11
-72.02
-96.39
-4.67
82.66
70.97
59.64
49.24
-44.46
-101.76
-54.76
46.3
46.25
-23.48
-61.5
-48.83
72.35
129.49
95.41
66.46
18.23
-41.24
-71.14
-82.61
-71.98
-19.62
-12.9
-116.49
-296.95
-237.4
117.93
253.15
188.81
117.22
69.65
63.01
53.09
-0.62
-14.71
24.73
19.28
-20.61
-146.6
-262.05
-184.5
33.83
140.72
76.02
16.46
16.39
70.96
67.72
-7.01
-52.39
-33.08
-47.25
-115.34
-76.88
92.08
138.61
102.2
69.4
-4.91
-28.11
-34.77
-50.36
-68.84
-36.69
-12.59
41.15
72.72
38.7
7.37
1.44
-29.88
-14.35
41.15
-39.23
-73.67
-15.41
0.93
11.44
53.56
66.32
47.36
25.1
15.33
6.81
18.58
24.92
5.84
-9.16
-12.89
-36.91
-83.79
-70.77
-29.8
-14
6.81
-7.8
-80.69
-0.8
87.63
-47.38
-110.47
45
111.8
50.49
-35.32
-79.45
-19.38
9.61
-30
-9.39
29.73
33.2
40.26
-13.12
-26.22
49.08
99.58
41.78
-23.64
-10.06
7.16
-12.29
-28.12
1.64
-5.51
-30.58
-12.03
-44.87
-78.2
-90.8
-44.48
32.37
61.81
67.99
11.17
-63.08
-23.96
66.15
43.14
2.78
6.77
39.74
7.1
-38.99
-51.84
-4.62
67.1
25.35
-2.3
-11.61
-67.86
-105.2
-14.21
-8.25
32.68
134.45
102.17
55.07
45.46
27.6
4.81
-11.11
26.97
50.47
-18.43
-44.99
-60.67
-54.78
-91.3
-41.13
-45.05
-31.71
5.8
21.65
-0.53
-44.84
-105.27
-158.39
17.82
176.78
140.07
67.66
1.03
-5.25
29.81
44.96
16.42
-39.42
-90.19
-86.47
-75.35
-75.09
-58.96
71.66
148.64
117.68
70.85
32.26
36.26
31.89
-2.93
-25.33
-35.82
-52.11
-136.06
-135.49
-7.63
92.43
71.26
11.63
-83.68
-102.05
-72.19
-67.32
-2.86
21
2.2
29.32
83.06
102.07
83.76
68.36
37.57
16.72
12.11
14.32
8.36
-15.58
-45.39
-64.37
-145.6
-191.11
-104.24
36.02
99.53
47.11
50.15
16.88
-76.87
-75
33.4
100.43
92.32
12.93
-25.79
-10.64
15.63
2.8
-3.93
-30.02
-122.48
-189.42
-128.86
37.42
153.09
110.52
45.98
26.91
26.07
40.58
68.83
38.29
-19.89
-16.16
19.45
4.44
0.38
-11.56
-22.87
-17.4
14.98
4.92
-16.84
-3.21
32.05
21.96
-17.72
-47
-26.15
33.47
-1.38
-196.05
-177.59
36.15
154.5
104.42
39.26
6.71
-35.19
-62.89
-33.87
31.11
-18.98
-139.36
-125.52
16.66
16.36
-14.02
60.06
95.66
26.07
5.76
62.09
79.41
89.32
67.88
12.69
-7.62
-12.25
23.17
-4.58
-168.78
-287.76
-137.55
132.83
149.99
106.19
70.93
43.95
24.84
-32.1
-88.38
-33.93
27.4
-15.93
-28.68
14.01
58.54
66.29
21.95
-6.15
-27.14
-76.04
-84.43
-24.52
22.74
4.83
-15.49
-17.28
-26.31
-0.8
50
26.36
29.26
29.85
-21.34
-37.41
-11.5
32.11
-19.74
-67.36
-44.97
23.3
28.83
-21.33
-49.39
-8.67
-9.48
-18.19
-33.95
-14.77
35.06
93.46
0.77
-43.37
46.56
72.69
-0.76
10.53
23.04
6.14
-59.81
-37.84
-26.06
-128.29
-124.43
-3.34
67.5
75.69
73.6
57.97
28.29
11.07
80.99
23.83
-48.01
-13.14
-3.53
-43.31
-16.41
19.69
-18.19
-57.8
-54.04
-73.69
-114.53
-75.05
45.88
158.92
132.8
70.34
23.23
23.88
3.72
-13.83
8.35
-31.57
-37.19
9.02
56.13
1.11
-39.1
-10.4
-14.52
-70.04
-56.06
-39.42
-34.4
12.76
6.25
-45.68
-24.31
66.67
122.76
132.08
61.06
-17.36
-88
-112.14
-38.28
83.83
106.86
58.63
19.88
18.56
3.93
16.09
-8.86
-115.62
-201.46
-156.27
-43.54
107.33
128.79
-117.36
-244.01
-67.55
139.67
79.05
124.44
151.65
98.65
31.75
2.07
-1.64
-8.45
-0.16
-40.35
-75.28
1
37.33
13.08
-83.46
-50.49
-0.13
5.27
-11.34
-72.47
-113.89
-118.38
-41.57
60.08
92.04
97.41
120.12
60.49
24.3
28.96
17.95
-95.27
-181.23
-116.86
2.9
60.71
45.36
-37.05
-14.51
66.37
83.16
-14.18
-78.57
-278.03
-397.43
-52.05
252.53
194.28
107.09
117.85
121.25
78.93
54.26
54.26
54.24
3.95
-127.56
-187.1
-0.47
150.19
100.71
32.03
-0.5
-47.11
-95.92
-158.54
-173.9
-81.48
22.91
56.89
98.1
86.23
13.37
-137.11
-211.16
-3.59
175.67
184.61
101.96
57.32
21.66
-19.11
-36.99
-3.97
15.6
8.41
-58.31
-115.87
-70.09
-26.36
-14.4
-45.39
-114.05
-214.21
-95.24
82.39
197.25
188.28
122.3
65.28
-51.36
-287.49
-369.39
-30.71
232.95
208.72
92.38
33.85
22.47
27.68
-16.02
-33.61
-6.41
29.97
5.42
9.25
49.94
49.33
43.52
33.32
-16.67
-36.42
20.36
5.59
-20.27
11.48
9.08
-65.48
-103.88
-80.39
-164.97
-186.23
-43.11
23.4
123.75
205.53
136.05
71.27
47.17
18.06
-16.23
-15.69
51.39
73.36
-91.82
-181.24
-62.53
104.64
112.5
14.93
-40.86
-53.85
-62.69
-59.14
-61.78
-63.86
3.23
96.55
104.67
97.43
79.24
56.35
31.7
17.74
7.22
-10.49
-40.88
-94.1
-161.39
-163.19
-153.43
-70.63
54.04
110.96
76.91
-121.1
-244.08
-19.96
134.95
171.52
166.83
111.28
64.56
40.46
-21.2
-61.98
-26.22
-71.32
-51.75
21.67
30.61
-4.84
-24.27
24.42
38.08
20.72
35.34
4.03
-84.64
-181.96
-67.79
42.37
78.15
60.73
40
34.93
43.9
-0.89
-81.51
-65.67
-10.34
42.83
18.12
-29.39
-25.33
41.9
-8.7
-110.23
-34.35
18.23
116.03
117.83
-21.56
-15.19
22.53
37.05
46.1
-27.21
-57.8
-80.86
-13.36
57.46
25.6
-51.61
-39.04
-14.23
-74.05
-5.81
83.35
90.28
63.32
36.59
-18.96
-144.34
-215.58
-141.39
49.1
116.5
165.25
124.61
52.96
4.18
-67.08
-70.49
-14.48
53.37
48.69
13.11
-37.53
-60.85
-6.34
61.23
67.57
60.24
18.09
-9.15
-46.6
-36.36
-33.96
-28.1
19.23
108.45
98.78
56.17
-54.35
-74.05
-16.86
-42.02
-137.58
-253.53
-195.24
92.42
171.94
106.03
79.57
56.08
33.26
29.55
28.04
-14.02
-58.26
-85.6
-92.62
-56.44
-18.16
64.77
82.6
11.44
-59.27
-86.59
-36.7
25.95
41.61
72.45
72.46
53.21
24.66
-7.75
-83.6
-157.69
2.99
102.07
60.4
-12.23
-42.2
-30.45
-21.71
-30.8
-22.72
-54.72
-10.04
22.43
-21.09
-55.68
-47.39
-27.96
40.45
81.98
59.7
-9.96
-28.47
76.62
42.8
-37.48
-57.27
-14.04
35.78
27.7
5.33
20.98
12.17
-17.9
-44.22
-58.09
22.18
87.34
74.11
35.91
-15.6
31.23
46.07
0.85
-81.79
-212.56
-277.72
-234.04
-47.75
148.18
201.98
180.1
96.05
31.17
16.32
38.79
69.81
44.58
5.64
-43.61
-130.27
-50.96
73.18
84.01
46.04
25.23
4.75
-54.07
-95.46
-46.75
13.39
1.34
-50
-4.87
32.14
36.01
46.36
52.43
23.43
-2.36
-43.41
-174.29
-210.99
-38.38
93.23
93.52
55.16
14.75
-1.43
32.08
43.1
8.54
19.01
-17.1
-45.93
51.35
21.24
-98.88
-42.09
27.11
32.13
47.94
60.57
31.9
-8.95
-53.71
-76.59
-126.14
-117.56
23.49
132.97
124.32
40.6
-12.87
-48.26
-119.38
-215.52
-148.33
89.86
90.22
90.64
86.08
54.87
52.68
45.06
20.32
-8.93
-0.96
35.66
-6.06
-23.67
13.35
47
3.14
-84.35
-85.88
15.01
18.83
17.8
20.93
13.37
-12.54
-19.39
-14.52
24.08
34.61
38.11
-16.87
-120.14
-154.18
-158.24
-161.88
-47.78
99.06
102.12
73.54
84.84
113.45
93.08
50.85
14.29
-34.8
-101.34
-143.35
-112.32
36.76
21.96
-26.45
13.35
41.36
46.62
30.87
9.91
-62.25
-101.78
-6.03
47.26
69.9
65.16
48.49
45.51
85.21
71.22
10.93
-44.08
-53.25
-17.43
0.02
-122.16
-117.48
-26.63
36.42
80.95
115.84
98.47
21.2
-41.49
-40.8
2.69
61.15
45.48
13.06
-14.85
-86.48
-122.21
-74.85
12.62
20.88
-10.69
-24.32
-5.86
7.76
-19.03
-47.17
-31.4
-12.43
-12.48
22.87
79.67
60.61
-15.91
-83.23
-92.4
10.47
57.18
-10.1
-41.61
41.02
100.04
81.3
48.46
26.59
14.64
18.6
3.01
-8.45
-5.42
-53.41
-167.36
-156.91
25.89
92.61
92.5
82.18
18.67
-31.8
-3.15
-14.02
-50.42
-70.26
-31
0.94
-71.21
-109.49
-15.11
101.34
119.71
64.69
32.59
23.25
15.95
10.92
-22.51
-14.58
9.15
25.36
18.76
-60.57
-145.5
-174.04
-23.32
108.97
99.37
7.13
-20.66
4.56
4.89
-24.31
-78.84
-79.56
-6.56
102.09
133.6
100.88
52.75
23.54
-10.49
-24.49
0.67
-68.88
-116.08
-49.77
20.5
72.38
43.38
-52.39
-73.09
-2.75
51.97
61.8
72.08
73.64
55.21
-45.48
-99.07
-65.35
-42.92
7.68
-25.17
-48.75
-23.59
-15.96
4.14
-6.8
-3.95
30.7
-22.41
-55.27
-1.41
14.12
-4.52
-15.45
31.76
46.06
37.67
-45.72
-69.58
-97.2
-72.69
29.83
75.59
43
-24.62
-45.6
36.34
103.14
53.03
10.97
1.73
36.04
75.85
53.1
28.64
32.26
45.22
5.85
-32.4
-2.47
-3.49
4.69
25.15
-8.23
-42.82
-55.8
-57.48
-33.2
-37.47
-48.35
-21.9
16.4
5.58
-62.23
-28.83
55.27
59.99
16.04
-95.75
-149.63
22.18
177.51
116.14
39.46
29.37
9.3
-35.82
-45.84
-54.18
-57.59
-10.57
42.55
104.08
79.35
-5.28
0.27
7.23
-35.09
-56.18
-62.7
-61.14
-61.22
-78.38
-89.59
-33.11
82.62
85.93
43.99
-9.65
4.83
16.83
-21.12
-4.97
17.69
18.65
12.55
13.93
14.32
43.06
45.59
-3.03
-106.42
-93.74
52.11
132.28
95.78
0.7
-71.76
-42.62
-8.04
-35.87
-95.72
-89.66
21.83
82.81
50.38
43.98
60.68
44.61
17.31
-42.91
-14.7
46.94
62.97
48.02
-32.68
-101.4
-123.88
-75.81
-24.16
4.99
69.22
57.63
52.65
57.44
50.47
28.68
-3.78
3.17
-10.6
-44.86
-53.9
-42.17
-53.66
-43.28
-10.23
9
37.53
52.76
15.32
-32.8
-74.81
-172.28
-168.55
-88.7
-20.24
103.64
137.63
131.8
99.13
72.59
51.89
39.15
-21
-44.62
-14.35
30.06
-9.51
-128.88
-159.69
52.79
154.49
133.39
62.1
-6.58
-35.11
-48.87
-77.9
-54.98
5.03
-4.17
13.31
42.32
16.06
-13.52
-3.53
-2.13
-22.07
-41.99
21.68
-14.47
-74.55
-79.95
43.81
122.31
63.33
19.76
48.16
61.2
26.91
16.93
-21.54
-36.94
4.36
1.5
-38.92
-88.66
-79.52
-14.96
39.8
36.47
31.49
24.85
23.64
-4.37
-28.8
-0.08
18.18
-11.3
-25.61
-1.82
38.82
20.78
-44.58
-89.4
-118.33
-17.32
22.32
11.14
24.2
25.23
26.83
22.2
-40.37
-74.03
-37.18
7.39
53.14
54.51
46.85
56.96
17.35
-74.22
-127.3
-101.45
24.27
92.51
35.71
17.89
24.69
41.79
23.66
-14.21
-41.5
-16.66
19.15
31.47
27.34
21.04
20.92
-17.96
-36.86
-26.57
70.67
89.05
33.12
4.92
0.09
22.37
-60.25
-177.17
-179.9
-17.4
133.64
127.65
45.39
-47.38
-106.65
-105.1
-34.51
63.83
106.73
86.37
24.85
24.08
48.18
36.31
-7.1
-8.88
-57.48
-73.66
-33.58
-3.9
-31.98
-42.31
5.81
46.64
46.27
28.08
29.3
22.66
-14.48
-125.27
-168.54
-46.7
15.34
45.66
40.23
29.69
18.48
15.96
11.58
26.43
22.65
34.19
5.13
-71.61
-157.32
-191.29
-134.06
44.72
103.28
107.13
104.73
95.28
85.37
53.2
16.86
26.04
19.8
-56.68
-117.69
-39.98
-82.44
-85.14
24.54
79.89
65.82
45.74
41.42
4.37
-38.02
-60.08
44.73
85.36
57.71
69.57
46.58
-4.28
-18.58
-14.36
6.41
2.11
-25.11
-47.52
-44.92
-39.2
-48.39
-41.8
-26.22
-36.74
-18.28
-26.81
31.07
100.62
70.3
3.32
-4.22
-8.31
-20.97
-54.83
-44.13
12.36
22.57
55.05
53.94
-4.91
-39.02
-38.41
-21.35
15.21
59.22
55.51
-35.97
-137.91
-120.73
-113.02
-105.25
-71.33
42.91
125.34
145.92
56.85
-13.45
-38.98
10.13
107.22
80.47
16.93
13.95
12.75
-4.19
4.85
-2.66
-3.73
13.09
15.15
10.68
-28.87
-41.56
0.21
48.02
45.51
28.85
11.82
7.85
12.39
-6.1
-34.45
-29.45
-14.09
12.43
6.75
1.98
-93.39
-223.19
-188.56
-10.69
163.79
175.01
74.44
32.14
28.9
17.58
-9.98
-12.83
8.81
34.87
16.82
-54.9
-116.15
-111.55
-2.28
87.89
81.16
18.06
-12.57
-19.5
5.53
16.7
31.83
18.78
-8.59
-46.19
-32.05
21.77
33.35
-1.2
-90.99
-93.83
5.62
44.78
-14.76
-15.77
13.98
46.49
61.85
57.69
32.52
8.48
-4.51
-28.03
-13.43
15.69
-45.24
-65.28
14.48
27.97
25.44
19.48
10.02
-29.39
-60.61
-26.35
47.39
38.3
-76.23
-110.62
-24.58
84.6
87.63
45.44
33.74
22.42
29.07
23.5
-39.5
-66.9
-31.73
52.43
51.55
-5.29
-23.6
-8.8
-31.5
-20.49
-13.16
-76.16
-22.96
31.56
81.05
37.97
-77.04
-133.56
-70.72
39.66
67.32
43.12
30.6
35.8
29.49
-38.73
-87.61
-32.15
33.78
71.01
89.63
-4.4
-120.6
-77.58
95.31
110.27
43.76
18.35
24.54
-6.66
-19.44
-30.7
-130.05
-163.74
-98.44
39.43
128.25
71.81
-29.69
-9.18
114.5
126.28
70.45
27.63
-4.6
-4.69
14.27
-35.38
-112.89
-142.71
-114.21
37.86
61.26
16.63
1.76
-8.42
-37.3
-57.37
23.45
77.29
66.12
57.96
25.63
10.41
-30.65
-90.59
-123.54
-119.05
-27.68
89.96
131.18
58.82
-57.02
-60.86
7.25
55.25
47.52
25.95
11.66
-7.7
-13.11
15.38
32.18
27.61
6.35
-45.75
-30.09
-23.73
-23.95
1.25
17.65
11.08
45.37
30.64
-7.11
-23.15
-15.43
25.47
42.39
35.3
-20.38
-91.83
-104.62
-43.3
-7.59
-5.63
-123.91
-108.07
-34.35
-14.72
33.05
87.77
113.09
74.71
41.22
42.03
-10.07
-74.46
-133.99
-139.05
-98.63
-17.63
92.74
184.92
143.58
77.07
44.11
39.91
13.64
-34.16
-82.33
-105.76
-67.93
-39.5
-31.08
62.54
108.21
75.62
19.6
7
32.8
37.43
10.82
-7.38
-2.3
-9.12
-61.19
-64.12
-80.39
-86.69
26.38
65.14
20.9
7.61
4.25
-4
-11.66
7.11
42.04
24.18
-69.66
-57.38
40.16
19.2
17.49
29.56
48.52
16.2
-4.49
-35.14
-110.23
-123.2
-125.82
-61.35
1.46
52.91
93.63
91.34
33.53
13.05
33.79
36
26.27
-6.35
6.05
39.63
35.32
33.29
20.99
-3.3
-30.34
-21.99
28.04
17.24
-52.76
-86.95
-85.44
-47.39
-48.66
-42.92
-42.22
-47.21
29.34
79.12
63.25
-6.54
-21.77
16.43
53.48
25.73
-48.91
12.77
76.8
49.55
21.31
28.86
42.26
10.3
-2.53
6.55
-28.44
-95.5
-189.06
-209.21
-59.08
131.78
157.07
104.89
40.72
15.64
7.26
23.71
37.7
28.54
26.12
-14.48
-107.29
-171.02
-66.41
51.19
44.39
4.03
-23.59
-15.45
20.65
34.63
1.02
39.56
29.31
-39.56
-17.16
26.25
-14.96
-73.96
-170.77
-118.99
41.12
116.9
84.71
70.36
79.28
76.69
51.79
33.48
30.95
-10.98
-98.9
-168.26
-111.25
-48.73
34.39
51.66
16.96
56.07
85.05
66.69
37.4
24.55
9.58
5.38
0.89
-30.49
-97.12
-114.58
-35.29
-25.09
-14.56
22.05
78.68
47.01
13.08
2.24
22.73
38.34
-41.34
-104.73
-87.88
-31.26
70.6
79.02
55.19
7.05
-34.87
-11.68
12.17
6.99
31.2
59.02
34.79
-13.38
-18.84
-0.33
11.53
-17.33
-34.98
-10.58
-14.71
-43.23
-6.77
24.73
36.02
38.29
14.85
14.91
-0.73
-47.26
-37.78
-8.39
6.7
-34.04
-101.32
-92.18
4.66
61.32
42.48
17.05
20.76
53.15
5.25
-1.44
33.74
-4.51
-11.44
-17.9
-64.15
36
89.59
22.73
-25.43
-59.77
-50.9
-3.99
5.05
41.29
55.98
24.52
-10.35
-2.1
20.74
36.77
15.68
-29.34
-39.62
-14.92
31.8
47.64
21.7
-3.29
-22.8
-8.52
-21.3
-52.28
-131.44
-139.55
-52.58
32.69
90.25
66.31
7.46
-0.85
10.96
8.66
12.27
38.5
26.07
-8.44
-29.23
19.89
42.36
23.49
-29.94
-93.64
-35.19
58.12
42.61
-3.1
-25.65
-10.9
-12.74
-21.87
-37.56
-44.01
-1.48
-7.68
-35.35
-0.06
26.97
19.86
1.88
56.58
58.68
75.76
71.15
52.83
36.89
25.99
6.94
-4.15
-16.72
-66.27
-140.69
-186.95
-137.62
-16.23
63.43
37.54
5.77
8.72
55.61
90.69
68.79
26.48
34.17
27.87
-28.75
-41.65
2.16
0.86
12.15
12.56
-4.03
-17.11
-13.33
29.07
7.27
-15.35
8.36
26.68
-0.22
-21.45
-8.38
-0.87
4.82
-34.44
-70.4
-69.64
-9.51
52.29
85.49
50.46
9.52
6.07
5.77
20.29
-4.17
-15.27
15.1
15.49
-2.71
8.64
13.18
-57.19
-111.92
-75.51
-18.32
-20.31
45.36
61.38
49.56
30.88
-6.87
-12.42
26.9
22.37
4.93
10.61
6.88
-3.5
-29.85
-21.72
21.57
14.44
-41.98
-54.26
-29.25
3.71
40.99
55.58
46.79
12.53
-8.43
20.55
43.59
19.37
-59.31
-165.6
-155.5
3.54
92.27
45.62
9.21
21.52
36.95
44.29
8.17
-53.25
-53.5
-16.91
28.82
43.06
30.33
-17.44
-53.92
-51.25
-56.53
-4.41
65.5
54.81
20.23
20.64
25.09
43.85
47.71
38.23
1.77
-94.35
-174.03
-154.92
-9.61
30.38
6.14
43.7
67.45
67.67
30.06
18.88
9.75
8.28
-4.72
-23.92
-37.14
35.44
-5.86
-90.52
-26.17
66.24
79.14
47.54
36.8
57.59
27.71
-47.07
-73.3
-26.17
0.53
-3.25
0.15
-23.84
-18.02
-57.86
-88.38
12.27
42.71
-1.46
-21.04
-14.84
29.25
24.39
5.09
-34.25
-68.64
-26.92
55.43
50.54
18.8
-9.58
-21.51
-8.94
-24.55
-0.1
14.47
-41.39
-16.73
6.57
-1.04
-18.95
-19.08
-18.47
-35.02
-19.96
11.47
-28.01
-49.93
40.12
71.35
49.17
10.57
-20.35
7.34
36.94
57.75
54.03
56.26
47.69
-37.45
-96.26
-64.31
3.58
16.42
60.99
106.61
37.2
-38.9
-10.38
7.87
23.26
40.24
37.28
33.32
22.52
-7.4
-46.45
-85.91
-115.31
-147.9
-102.54
36.3
85.58
107.52
97.97
69.49
-0.33
-8.4
8.23
11.18
24.43
-14.75
-45.44
-4.98
32.95
-17.04
-44.03
-18.97
21.45
34.15
26.13
-18.29
-17.43
30.53
-5.93
-41.31
-97.45
-58.3
21.48
28.43
-25.6
-43.87
-30.85
31.33
67.89
23.22
-36.35
-37.65
11.35
20.4
49.09
46.55
8.23
-7.83
3.77
6.42
25.1
-32.96
-105.07
-134.83
-71.39
64.08
63.9
36.8
21.67
34.34
38.34
27.5
12.14
7.41
11.19
5.92
-10.02
-36.43
-155.69
-162.91
-23.67
55.16
52.1
26.79
8.75
-0.49
-26
-7.2
49.22
55.36
50.84
-5.03
-57.72
-11.07
62.89
79.83
54.3
45.62
16.61
-25.69
-64.18
-86.21
-21.75
67.75
21.97
-69.45
-102.4
-64.9
11.59
59.11
46.03
25.14
28.57
21.49
-21.78
-45.14
-42.38
-0.3
33.46
80.07
67.27
34.02
20.62
-0.64
-22.07
-5.13
19.44
-4.95
-54.34
-69.54
-88.56
-49.24
38.8
99.48
86.62
40.61
29
32.87
25.48
13.16
-31.64
-101.47
-116.99
-23.36
-6.3
-84.25
-94.44
-36.08
81.06
70.02
59.99
107.34
79.44
41.24
39.98
27.2
19.05
-4.97
-20.22
-13.19
12.74
17.4
-9.75
-68.91
-30.7
-1.71
-18.12
-49.36
-32.02
-10.88
-1.69
-23.5
13.27
14.71
-29.07
-37.19
-44.04
-45.68
-33.8
-29.26
-34.65
-18.86
-23.02
32.55
86.62
84.1
51.48
26.34
32.71
38.94
25.36
-7.93
-20.71
-9.01
-12.03
-12.02
-33.75
-93.7
-142.86
-82.08
45.44
81.24
95.79
59.67
-1.18
-14.18
-14.97
7.5
-0.98
-29.18
-6.55
57.94
38.26
22.43
-9.05
-72.15
-80.56
-88.41
-80.85
-17.18
44.28
105.05
115.28
88.58
53.28
31.13
-12.11
-43.31
-42.37
-13.4
-2.62
-45.55
-142.42
-189.27
-21.11
88.88
132.6
101.14
56.11
40.39
65.91
65.13
50.7
15.23
45.73
19.63
-17.96
-16.71
-35
-26.74
-3.39
-46.04
-97.44
-77.32
9.81
54.39
59.01
49.79
35.4
17.19
46.71
42.54
-16.17
-53.39
-62.4
-49.11
-20.48
-64.67
-128.22
-123.51
-38.8
78.01
67.25
47.13
35.26
5.19
20.2
49.48
17.94
-63.21
-173.49
-192.52
-4.34
165.14
144.78
113.76
61.19
4.81
-26.2
-107.9
-93.92
20.58
59.76
29.44
35.83
34.47
28.41
42.56
28.57
21.98
21.98
47.46
49.46
15.15
-15.43
-38.02
-65.22
-77.07
-79.1
-43.9
-16.29
-18.28
-9.87
-23.42
-34.79
23.3
53.34
19.21
-32.1
-93.53
-85.94
12.97
70.45
60.08
19.51
21.9
44.53
41.11
2.84
-43.12
2.83
68.35
45.03
-31.13
-90.48
-87.16
-73.1
-5.98
31.1
8.53
-20.96
-9.83
49.03
60.96
58.32
27.5
-17.11
-50.5
-51.8
51.14
96.14
42.29
-9.81
-58.99
-109
-129.82
-117.08
-25.81
78.48
87.38
70.9
32.51
26.76
25.49
52.12
33.64
12.98
-1.11
-10.77
-36.49
-25.14
-0.24
-21.86
-29.27
-72.59
-67.25
-21.97
-12.36
10.12
33.91
99.63
100.09
33.08
-7.45
12.57
18.48
-1.21
-28.34
-5.54
30.15
7.23
-20.83
-21.64
5.46
-44.09
-91.63
2.88
32.63
0.4
33.93
51.4
-1.3
-27.12
-32.15
-13.48
-0.38
-6.19
1.12
-7.17
-47.92
-62.85
-51.86
2.51
-3.82
14.54
-24.18
-28.1
14.77
22.33
9.59
48.23
73.69
48.85
3.8
-39.62
-60.53
-10.54
41.1
-5.84
-67.72
-33.55
-46
-46.46
28.65
74.06
76.27
37.67
6.32
4.7
24.7
35.83
27.1
26.36
6.96
-17.08
-23.28
-9.53
-11.5
22.67
40.33
7.83
-36.83
-85.89
-134.81
-161.54
-127.77
41.22
194.31
58.19
-72.58
-51.87
91.15
121.77
74.84
43.75
22.98
-15.04
-30.92
55
66.7
35.69
-2.25
-14.74
-13.51
-34.85
-68.07
-80.66
-83.31
-29.16
12.86
-47.01
-187.39
-208.36
30.82
140.62
131.36
64.28
25
52.45
63.57
62.55
23.99
-13.01
-16.73
3.85
20.95
25.99
7.85
-36.6
-38.61
-60.8
-116.43
-96.68
-11.02
59.48
73.41
57.35
62.81
53
33.9
20.49
-32.8
-114.85
-45.76
66.41
29.8
-71.83
-76.98
24.11
109.31
54.62
-17.18
-48.37
-104.77
-130.88
-29.82
63.82
104.75
64.93
19.92
14.43
11.58
8.73
-9.25
-2.32
9.65
-23.96
-2.42
46.7
49.73
29.94
14.67
6.35
2.98
0.65
-39.64
-100.95
-182.55
-215.93
-88.84
67.93
133.34
132.13
86.9
57.28
7
-2.73
12.61
-81.86
-112.35
-22.53
59.3
35.06
-13.2
-26.1
-67.12
-63.33
13.98
61.84
74.23
23.54
-48.15
35.88
76.6
87.44
60.35
13.52
-21.67
-38.01
-38.31
15.13
35.1
19.62
7.87
-26.04
-90.15
-124.15
-91.3
-65.27
-40.56
17.06
68.86
93.28
67.24
71.28
60.14
42.21
22.32
13.03
10.29
6.83
-5.24
-44.9
-76.03
-64.75
-45.11
-21.21
51.85
57.48
26.66
31.72
14.64
-32.05
-28.51
13.12
-15.39
-77.85
-73.53
18.07
14.19
-57.89
-5.76
69.7
69.77
60.72
47.6
37.26
15.91
-32.08
-62.9
-21.73
14.32
2.58
15.18
25.38
8.49
-2.99
6.29
-15.26
-62.92
-49.13
-41.55
-6.9
16.44
38.37
40.66
39.79
29.33
24.85
-2.32
-46.32
-38.95
-75.58
-144.07
-138.89
12.64
91.72
99.75
62.3
16.41
-27.01
-51.36
-45.53
-6.66
58.94
46.96
-15.8
-47.53
-32.47
66.41
106.96
85.23
38.21
18.83
21.17
1.17
-19.42
-37
-53.71
-74.58
-117.6
-184.64
-122.28
20.76
51.29
54.76
80.78
72.16
68.56
72.14
62.85
42.43
13.72
15.41
-5.95
-13.18
-4.24
24.53
-28.26
-73.94
-53.63
52.31
76.14
16.89
-3.1
-41.4
-65.36
-24.47
19.63
5.71
0.35
-3.97
-27.54
-15.54
33.85
47.88
20.38
-2.13
-36.19
-76.94
-124.21
-153.35
-97.02
2.42
21.51
41.98
66.03
72.25
80.43
67.73
31.74
-4.31
-57.16
-86.85
-63.23
-23.36
4.07
51.83
37.53
0.21
25.84
24.82
70.27
62.98
33.36
37.15
62.48
59.43
32.84
27.68
4.8
-56.37
-24.58
36.89
-14.01
-35.25
-31.72
-36.61
-65.44
-129.01
-74.72
20.42
12.41
-68.78
-34.9
13.81
32
18.84
26
58.84
77.55
57.81
12.34
-34.45
-23.6
25.62
74.9
22.81
-152.75
-213.06
-85.85
50.93
54.91
0.93
-8.36
10.34
57.39
53.26
7.61
4.45
58.37
45.82
24.68
18.94
-10.78
-54.23
-41.69
-49.37
37.73
93.19
62
12.61
17.7
28.03
3.51
-22.19
-22.12
-42.36
-14.94
32.92
42.83
-35.79
-104.45
-159.03
-94.16
132.84
188.55
124.17
56.54
4.26
-10.34
-1.68
-11.53
-29.52
-33.3
-23.39
-20.05
-1.3
23.7
-10.39
-65.66
-24.53
50.48
40.21
-44.76
-52.42
18.97
-6.62
-70.49
-125.34
-113.09
3.79
96.36
81.4
43.15
13.43
-44.77
-70.99
-47.22
0.88
36.76
33.85
10.58
-43.19
-67.03
2.12
46.65
76.47
-10
-68.75
-108.18
-54.76
70.71
142.04
105.94
52.05
35.17
30.63
19.48
21.7
7.22
-30.96
-10
-3.65
-11.95
-6.92
16.22
-18.63
-68.66
-52.85
8.92
35.84
25.68
22.44
-3.13
-36.48
-28.96
-24.41
7.04
50.17
5.65
-22.16
-53.58
-83.12
-43.1
91.56
170.16
87.14
2.98
-11.82
-15.82
-36.07
-35.26
-44.09
-95.02
-158.32
-144.57
-11.02
155.7
165.51
90.53
38.59
-3.15
2.6
63.99
91.21
53.63
25.59
3.88
-14.37
-63.94
-121.65
-104.49
-88.46
-43.58
51.63
48.39
-7.55
-23.6
-11.34
22.08
15.52
-21.42
-34.62
42.07
59.95
23.96
13.88
23.41
-3.45
-60.28
-63.8
-54.28
4.81
98.83
98.88
30.61
-12.41
-9.94
5.79
8.62
-5.45
-22.02
-27.16
-11.19
22.22
3.8
-14.95
10.79
18.13
-88.71
-172.59
-191.53
-66.7
30.41
110.28
104.18
63.65
61.6
26.81
-20.52
-43.64
-37.12
24.23
54.83
9.91
1.99
31.96
-27.58
-96.45
-53.63
35.67
95.7
129.88
78.11
40.03
26.58
-2.15
-9.75
15.11
34.8
-5.2
-22.65
-84.93
-115.24
-71.32
44.22
109.43
98.27
40.21
-27.74
-27.44
21.13
24.36
7.82
-0.55
11.87
-23.37
-85.65
-44.22
4.84
14.86
33.62
39.92
-11.3
-45.15
-16.76
-17.24
-16
30.72
16.66
-28.21
-17.7
-31.26
-60.77
-53.78
16.02
62.24
38.39
2.89
-28.41
-90.88
-63.36
43.84
59.11
33.13
14.89
30.46
45.08
13.12
-23.28
-33.2
-108.96
-189.93
-102.89
11.57
56.24
85.79
77.43
75.1
41.32
27.7
27
-7.07
-39.41
-19.57
-21.14
-62.74
-41.64
41.81
75.49
5.22
-23.33
17.8
33.72
69.16
78.71
18.89
-3.14
33.25
59.22
42.4
23.05
-18.96
-32.97
-51.02
-74.34
-106.57
-106.57
-49.38
8.28
40.33
51.7
68.66
58.36
41.16
9.61
-46.51
-96.93
-78.3
-48.51
-32.66
-55.79
-26.97
7.3
10.32
19.84
43.77
68.42
38.34
-18.91
-61.55
-57.63
-2.77
6.63
46.42
82.19
70.04
53.71
25.5
-0.59
-13.87
-45.71
-104.27
-103.92
-16.32
94.9
43.11
-0.5
6.54
59.82
83.38
63.77
38.3
7.7
-7.93
-24.69
-26.44
-20.6
-12.07
-4.3
-1.26
-13.47
-22.41
-24.78
6.51
28.78
25.48
-0.04
-62.86
-68.37
5.99
-3.35
-71.03
-18.84
58.46
78.3
46.69
2.05
-15.57
0.16
-31.92
-50.25
-18.85
20.8
55.8
49.35
36.99
28.85
20.73
16.31
17.12
13.56
15.49
4.52
-6.18
-6.15
-19.85
-28.85
-33.5
-53.38
-26.22
38.24
47.52
7.97
-31.61
-28.93
8.88
15.24
1.76
-24.19
-14.8
9.44
16.44
15.57
9.83
17.99
11.15
15.62
6.95
-1.29
-5.62
-11.26
-18.01
-20.44
-11.73
-0.46
9.51
21.44
28.43
1.05
-10.59
-9.17
-9.04
-1.71
9.09
4.96
0.51
-7.06
-6.72
-4.83
-12.99
-19.16
-21.61
-21.25
-7.79
-0.87
1.57
-7.64
-18.98
6.31
43.47
30.64
8.3
2.96
7.14
20.39
20.19
7.05
8.23
9.07
1.63
5.5
11.25
5.47
1.15
-2.49
-9.32
-16.56
-10.08
-5.76
-1.54
-1.82
-1.44
-6.8
-9.56
-5.7
-4.63
-2.29
2.76
2.31
3.63
15.24
11.55
6.15
13.51
10.94
2.97
-6.92
-9.91
-10.5
-11.03
2
12.54
9.09
12.99
18.95
19.08
16.17
6.29
-13.78
-57.27
-67.71
-52.2
-25.01
-18.88
-14.17
5.79
8.77
13.35
3.72
-48.72
-44.38
-2.5
27.98
5.5
-22.54
-32.48
-25.22
5.34
22.28
15.58
2.54
7.32
4.49
-14.14
-32.02
-29.03
-8.75
4.98
12.9
14.66
20.65
20.09
12.59
7.11
15.79
22.61
15.77
-0.98
2.57
25.57
42.65
40.78
15.08
-10.03
-5.43
-2.93
19.53
14.52
-25.49
-37.19
-12.69
4.06
14.01
3.1
2.32
0.4
-1.5
7.4
10.79
7.72
9.12
14.31
8.3
-6.34
-21.72
-4.77
19.16
-1.36
-40.56
-48.1
-47.5
-30.18
-18.76
-6.57
13.05
23.08
2.85
-2.7
0.9
10.46
18.04
-3.7
-12.45
19.58
24.16
0.69
-16.93
-20.32
-26.31
-28.95
11.51
21.95
10.32
-18.39
-39.24
-19.17
-2.61
18.89
17.9
6.75
2.76
4.74
-4.43
6.5
13.83
-13
-10.1
14.76
18.21
-19.53
-94.58
-116.06
-89.89
-42.41
-8.64
-3.01
17.23
27.01
21.67
-1.91
-58.8
-64.55
-34.82
-33.64
-64.87
-64.49
-42
-55.14
-104.73
-139.67
-98.51
-28.34
37.44
89.28
112.02
97.3
86.91
63.18
37.34
26.52
16.71
6.56
-25.28
-27.79
24.65
24.34
-87.12
-262.41
-231.53
-86.3
86.89
153.38
137.67
91.75
92.07
71.87
30.37
31.96
27.79
-12.21
-55.36
-9.76
46.93
63.49
56.27
18.86
20.42
-10.25
-25.16
16.26
38.69
-6.21
-74.66
-104.59
-42.54
-13.63
-20.43
25.67
59.11
45.74
17.06
32.68
35.16
18.64
15.54
9.97
-6.52
1.08
-14.32
-22.74
-18.09
-33.12
-50.61
-15.69
-14.26
-16.46
12.7
8.21
-13.09
-4.95
-25.47
-64.34
-52.62
-35.75
56.2
83.16
71.62
65.22
64.65
47.34
30.35
6.05
-21.61
-48.31
-70.78
-72.08
-29.29
-2.03
12.03
34.57
24.98
-58.63
-110.89
-67.06
-20.8
-14.83
19.78
68.18
66.74
-7.19
-99.55
-100.98
-34.31
6.84
-28.94
-60.03
-134.35
-122.07
40.76
138.73
134.55
86.16
43.55
36.05
79.06
107.69
29.79
-0.14
0.39
-42.54
-58.74
-30.67
5.21
29.16
15.71
-1.49
-22.62
-122.87
-181.27
-74.44
68.99
69.17
74.32
92.05
68.46
23.24
-0.91
-31.31
-66.17
-92.64
-36.94
52.77
71.72
67.91
83.26
58.69
42.84
28.39
15.48
-45.48
-105.63
-129.66
-95
32.95
101.82
81.5
56.28
28.06
3.3
-2.39
-15.5
-3.95
25.96
-13.1
-62.79
-107.53
-127.34
-85.4
4.76
51.64
-2.32
-40.4
-26.39
-6.15
0.84
39.62
58.68
114.38
106.78
63.23
54.6
35.48
20.41
14.96
1.8
-72.54
-106.92
14.77
9.03
-21.07
-5.76
20.09
25.49
30.2
36.57
-22.94
-115.5
-89.6
30.95
106.22
87.87
27.92
-18.62
-68.41
-60.54
37.95
70.28
15.04
-32.66
-30.24
-60.62
-97.84
33.47
134.67
62.25
-63.35
-129.38
-127.3
-67.63
10.26
40.43
39.72
16.83
21.8
-8.06
-48.63
-14.75
8.36
-1.7
11.74
19.71
36.04
37.3
26.38
30.29
49.76
10.25
-69.09
-92.52
-68.95
-35.31
26.49
53.93
74.91
58.14
40.53
14.23
-11.15
-30.84
-132.66
-208.67
-222.98
-111.25
24.81
149.98
147.87
106.75
32.75
-46.89
-35.77
29.69
78.12
81.71
82.52
58.58
36.89
-4.23
-41.08
-73.13
-110.24
-18.37
116.51
76.11
-9.2
-6.87
39.51
68.62
22.91
-99.57
-95.32
18.46
107.46
118.48
96.2
68.8
38.12
15.13
-8.06
-44.32
-213.27
-346.4
-323.22
-92.14
71.62
134.14
97.53
62.39
76.02
89.38
49.29
0.53
-67.24
-98.01
-63.01
-1.31
39.2
51.39
72.66
61.11
12.89
-46.75
-66.31
-19.52
-11.02
-15.72
-15.85
-57.06
-103.25
-68.31
-18.41
9.88
78.93
89.95
66.1
54.88
24.52
1.62
-21.74
-3.06
70.76
49.01
-83.18
-223.6
-184.6
28.07
173.13
76.81
32.2
84.28
98.3
58.11
-7.16
-68.02
-99.55
-71.77
-2.81
38.07
62.91
35.84
-8.28
-39.03
-43.33
-55.2
-197.29
-200.26
-38.38
129.67
165.28
125.98
81.26
73.06
63.48
15.08
-34.98
-55.04
-71.82
-72.75
19.2
67.78
56.45
4.61
-61.08
-79.37
-135.02
-103.54
-54.22
-4.77
52.41
61.49
57.26
68.96
74.44
42.17
12.67
-69.72
-125.09
3.12
106.2
61.56
49.18
68.51
60.01
3.1
-18.47
-14.17
-25.58
-170.29
-246.12
-63.32
106.44
137.06
79.65
55.57
39.37
-5.43
-37.98
-68.52
-45.63
-0.65
5.96
37.41
22.16
-2.62
-48.06
-20.26
51.56
53.36
-2.44
-130.5
-203.77
-66.83
95.55
103.21
47.61
32.76
56.98
5.54
-157.32
-154.96
82.31
152.68
40.58
-28.21
-62.68
89.57
185.34
121.15
63.62
44.77
26.81
-24.56
-38.87
-52.93
-80.27
-73.25
-11.4
-55.44
-93.55
-4.92
106.14
104.94
11.05
-81.85
-139.77
-188.09
-256.59
-200.55
75.9
218.48
164.91
128.52
126.68
108.48
79
33.22
-4.39
-12.8
-24.46
-12.27
10.81
52.32
66.85
6.53
-29.87
-30.21
-3.04
36.09
0.73
-14.88
-56.37
-104.03
-4.82
41.39
40.09
15.81
0.33
20.03
46.11
-42.69
-79.59
-6.77
29.7
41.29
47.52
22.27
-5.99
-7.17
-18.68
-50.67
-88.31
-100.59
-114.65
-93.11
-17.47
62.79
59.45
5.32
-6.06
-49.42
-44.55
25.33
53.3
83.6
-21.76
-186.19
-167.48
-24.86
71.46
54.88
26.76
65.24
90.25
60.76
52.99
57.38
34.21
-39.98
-2.5
31.57
-23.27
-41.25
-4.36
-9.72
3.13
-44.8
-111.01
-78.98
-18.65
-43.12
-66.21
7.35
96.15
114.93
135.86
133.8
65.88
-10.62
-104.76
-120.48
-18.27
-6.88
-85.59
-79.81
42.66
128.31
90.56
-14.17
-73.85
-35.3
47.23
35.27
-30.58
28.79
109.95
75.29
24.78
7.06
7.47
13.2
-11.56
-151.39
-309.77
-268.81
-189.09
-66.33
102.25
150.12
81.73
31.54
48.43
74.76
81.28
102.05
88.5
62.86
58.07
62.35
56.84
25.6
2.88
-76.96
-205.34
-157.12
-1.35
52.98
61
15.27
-27.88
-10.02
-19.98
-64.75
-83.41
-8.24
-0.38
-131.76
-146.24
-67.1
-105.05
-8.17
147
153.49
133.6
94.56
75.84
38.89
6.9
-32.9
-62.03
-37.34
-31.9
-123.73
-76.96
67.78
123.86
84.19
62.82
-14.64
-161.04
-231.76
-85.74
42.04
87.15
112.21
80.23
34.02
39.67
52.98
31.73
-6.86
6.44
-12.49
-120.48
-129.26
-44.34
-23.42
-38.23
24.97
4.34
-30.11
-5.45
11.51
47.36
-8.97
-145.94
-149.38
-9.49
146.77
177.3
147.59
22.23
-104.34
-95.02
-9.65
30.96
-29.33
-70.08
-66.42
29.85
155.4
155.49
89.18
6.88
5.61
21.84
6.11
-93.01
-225.29
-168.96
-15.3
-35.3
-45.54
-23.31
60.45
54.88
24.39
100.24
159.95
79.58
-110.7
-257.74
-305.85
-198.12
50.43
226.05
230.56
119.93
62.82
42.41
-16.25
11.56
-16.1
-154.64
-114.21
16.2
117.54
121.76
48.14
35.28
42.3
58.61
-6.09
-18.82
35.57
35.75
-144.16
-283
-97.19
131.27
72.17
20.9
54.44
39.61
1.21
-55.47
-34.62
67.47
107.11
36.81
-19.78
-27.4
-168.65
-300.65
-112.78
147.57
144.34
4.24
11.97
61.39
-33.57
-141.38
-98.1
-40.77
-19.97
20.94
39.31
15.52
-56.71
-223.64
-137.75
144.02
286.72
205.9
44.25
-32.6
9.84
67.34
35.2
-15.03
-25.89
1.66
29.93
18.49
-46.95
-85.95
-62.96
-137.88
-80.73
117.84
144.37
98.6
-8.51
-155.46
-171.91
38.02
171.55
171.86
97.64
56.63
41.96
14.35
-31.89
-66.65
-196.07
-429.31
-361.49
-24.04
153.52
233.1
196.79
107.74
74.73
90.6
41
-215.81
-345.87
-134.29
16.81
8.93
104.66
177.68
141.84
78.54
95.23
94.96
26.56
-46.01
-96.18
-182.53
-171.12
-57.02
-11.95
73.01
120.49
10.05
-119.67
-81.45
11.39
41.22
54.25
25.95
-11.57
-4.28
36.79
34.48
75.73
76.68
-1.79
-44.55
-84.85
-91.56
-99.41
-110.8
18.9
212.06
217.71
98.99
18.34
-3.11
16.31
32.1
-47.3
-225.8
-288.21
-22.12
161.84
113.49
27.79
-37.49
-34.63
21.69
105.83
63.84
36.94
111.51
-21.64
-183.2
-180.87
-122.83
-41.92
71.95
107.27
103.38
117.53
99.81
61
58.06
19.38
-79.31
-200.04
-140.8
-37.27
-2.28
-1.92
-36.31
-63.97
-11.21
47.61
80.61
48.97
-17.3
-116.37
-204.2
-150.63
0.55
74.58
105.89
107.31
121.45
111.74
39.82
18.65
-30.6
-192.31
-74.36
176.48
195.38
123.3
71.61
-16.56
-5.41
-12.27
-122.26
-166.48
-49.83
72.01
70.74
5.91
-20.58
12.44
73.01
77.52
-3.55
-126.27
-257.74
-185.03
-84.14
-16.12
154.58
167.49
76.08
29.72
21.01
-33.4
-86.89
-197.64
-219.5
-126.74
-9.96
144.78
210.86
181.14
112.2
50.74
67.6
78.32
43.01
-18.34
-93.8
-96.12
41.3
43.86
-95.21
-155.49
-34.28
90.47
109.54
27.53
-95.68
-186.03
-90.44
77.02
1.81
-17.41
25.54
1.17
30.69
103.71
109.63
90.03
38.28
-30.93
-71.99
-59.91
-27.27
37.79
4.11
-181.54
-214.89
-37.19
16.07
119.09
179.5
140.64
94.75
67.29
50.94
42.64
-0.83
-139.11
-283.76
-212.8
63.63
148.38
159.2
93.3
11.58
18.79
25.44
-12.22
-103.36
-124.77
-72.11
33.52
94.76
74.32
50.18
10.21
-10.77
-56.79
-160.7
-135.44
-90.24
-64.64
-31.87
-5.45
82.36
145.26
119.32
79.79
58.38
51.67
23.91
-21.05
-53.6
-58
-147.05
-208.3
-43.55
112.53
126.51
82.63
53.18
28.93
20.49
-38.15
-67.8
-34.02
-43.54
-136.98
-125.38
40.37
90.25
39.8
68.65
75.4
69.3
37.73
6.52
-4.7
1.51
-73.59
-171.96
-145.28
26.52
111.29
65.78
40.59
97.99
38.54
-28.58
-43.67
-44.69
-38.15
25.61
47.28
14.23
17.52
28.42
49.29
21.12
-32.55
-159.62
-167.95
68.58
181.19
89.85
51.86
46.91
-11.9
-79.78
-63.18
8.59
47.03
11.21
-9.9
-4.97
47.39
66.75
46.94
7.87
-187.41
-366.15
-141.79
164.58
156.48
72.01
13.17
12.32
12.63
26.09
31.18
35.64
26.19
0.13
-54.46
-94.97
-152.22
-152.54
33.02
176.69
154.97
77.02
36.83
0.08
-32.94
-51.33
-51.39
-35.3
-21.14
-79.62
-85.8
30.88
99.8
45.29
14.64
-6.36
23.52
14.38
-14.71
22.47
5.67
-20.37
-14.65
43.46
50.26
40.32
17.87
10.73
1.9
0.56
7.69
8.69
-60.86
-124.4
-99.11
-51.96
-25.1
5.72
45.4
62.81
30.1
38.86
47.59
62.43
49.03
-2.58
-24.61
-52.33
-38.98
-35.85
-65.23
-107.09
6.57
16.98
-17.63
47.17
82.29
86.12
46.5
1.38
-12.08
-75.99
-53.15
-71.99
-269.41
-380.93
-97.75
270.92
298.08
157.45
79.25
95.8
75.98
43.4
0.15
-32.61
69.49
134.08
117.06
75.59
0.45
-109.01
-115.56
-100.07
-59.23
-64.03
-69.99
-37.42
2.1
-14.37
-17.98
17.25
66.11
44.01
9.12
-1.15
-14.19
-43.85
-41.64
-67.36
-89.47
-127.01
-83.85
-6.62
-3.74
38.83
85.89
31.21
87.52
158.83
87.89
5.51
13.47
20.46
37.48
36.47
2.25
-29.62
-69.01
-46.71
-50.14
-28.04
-19.82
1.91
34.84
6.27
-41.23
10.42
78.71
73.09
46.24
20.38
15.27
-23.16
-133.93
-192.06
-130.87
-68.16
48.76
170.65
150.63
74.52
44.73
43.56
39.27
-3.13
-52.95
-156.58
-185.67
-70.22
75.84
22.37
-152.04
-67.96
129.49
63.72
4.99
63.12
48.05
19.16
5.62
-37.23
-85.08
-5.65
50.77
27.22
76.97
80.7
70.41
43.34
-13.17
-40.46
-49.41
-92.5
-137.39
-122.44
-109.92
-72.84
75.96
160.74
113.08
47.55
-24.8
-64.69
40.09
123.47
67.87
6.23
-13.23
-28.8
-12.43
28.83
26.66
46.15
62.24
42.13
36.75
10.65
-36.98
-77.89
-117.78
-34.32
33.73
50.32
-10.65
-42.51
-79.65
-184.38
-64.49
114.29
37.16
-172.73
-203.1
63.81
220.22
157.79
-8.05
-84.89
28.41
90.02
53.47
14.24
-23.04
-13.45
24.53
56.11
8.96
-113.24
-309.67
-261.06
47.21
173.25
123.11
69.91
100.15
100.6
51.84
-11.6
-78.44
-89.13
-58.18
-0.48
71.92
109.8
95.29
56.44
27.54
12.94
-30.09
-88.25
-171.04
-121.89
36.46
112.71
87.86
-1.05
-31.23
-12.98
-61.2
-149.33
-107.46
64.42
134.88
141.6
108.45
80.99
62.59
55.36
60.75
14.82
-56.53
-73.73
-61.11
-139.6
-148.91
-83.94
-8.06
40.13
-28.99
-149.96
-76.02
34.16
27.82
-12.11
-38.92
65.35
148.91
83.29
75.45
86.62
65.16
20.58
-27.19
-31.42
-67.88
-87.26
-51.25
-64.11
-25.89
50.17
84.43
4.01
-9.12
-61.34
-96.39
-38.84
2.7
32.98
116.83
98.67
80.6
34.12
-50.97
-27.14
38.06
-17.12
-128.92
-158.01
4.7
124.36
88.34
24.21
46.77
72.19
69.93
21.23
3.86
-9.36
-33.61
-82.85
2.28
77
55.19
-19.26
-49.73
-70.9
-31.5
-5.84
16.59
-1.74
-62.82
-74.99
-50.8
-2.6
-17.89
21.01
97.93
101.13
27.22
4.9
-7.93
-68.05
-82.8
17.54
74.91
13.97
-30.13
-11.58
8.2
-30.47
-45.75
4.18
16.88
-68.93
-165.43
-51.37
88.92
28.62
19.79
61.27
41.67
52.89
41.33
31.9
11.06
9.33
-5.34
-65.85
-71.57
-47.02
-12.06
-74.92
-160.78
-163.58
-18.27
135.38
163.87
110.41
14.68
-53.96
-76.76
-33.87
17.44
27.6
62.28
96.19
79.14
17.9
-58.83
-59.89
-20.72
11.44
56.77
12.74
-0.68
26.83
15.85
10.43
77.1
66.08
8.22
-1.47
-18.09
-68.75
-134.3
-141.02
-86.46
-89.26
-63.64
-6.45
-22.69
36.48
130.23
154.29
109.15
77.8
53.49
-78.13
-318.78
-364.17
-187.5
-138.56
-92.13
144.46
311.65
265.36
152.99
67.18
0.23
-87.29
-131.4
-93.83
19.32
40.41
-13.49
31.8
123.16
130.01
78.11
-39.92
-126.3
-54.75
31.93
7.23
-98.16
-65.85
0
53.18
86.43
52.85
-20.65
-0.13
81.05
139.19
83.7
-9.81
-164.38
-262.71
-88.73
88.57
165.75
161.62
91.57
43.07
21.5
1.15
-75.24
-144.07
-117.63
-71.47
-28.52
52.41
101.99
89.62
47.02
-60.75
-147.8
-207.36
-131.87
50.77
119.83
82.79
47.32
48.31
66.8
71.72
25.4
-22.91
-66.71
-77.39
-74.69
-30.61
-71.55
-67.61
9.47
52.6
29.16
26.32
51.38
34.18
-136.03
-199.76
-305.5
-270.87
58.44
261.22
281.95
187.4
90.72
64.44
63.94
52.64
30.16
26.26
48.73
48.28
-34.61
-165.4
-138.81
23.15
107.98
84.46
-72.56
-177.04
-64.26
56.46
63.32
-50.84
-87.37
3.41
101.34
-15.32
-131.76
-93.92
53.72
174.61
162.96
114.37
74.98
28.4
43.8
76.11
-12.02
-115.48
-186.77
-119.28
2.83
78.28
78.31
57.92
56.66
-42.24
-148.13
-88.35
-47.03
-14.84
44.47
55.31
53.98
53.19
31.91
2.5
-28.1
-42.9
-68.3
-97.98
-79.8
-168.11
-250.41
-25.34
223.88
242.06
163.54
73.2
2.68
-12.35
-11.48
-6.01
-16.45
-26.57
-23.22
47.08
64.54
7.41
-49.12
-83.15
-200.26
-212.74
-18.19
143.99
189.82
121.95
25.78
16.97
40.91
19.53
-1.15
-5.21
-54.66
-157.42
-124.05
45.84
140.22
122.46
0.43
-64.73
-46.44
23.17
78.45
43.76
19.76
35.37
52.66
15.65
-26.34
-37.35
-44.02
-2.14
68.1
47.88
-87.66
-122.69
-56.88
39.28
80.09
50.17
-39.7
-82.69
-69.94
-30.88
44.44
87.95
9.44
6.52
-38.85
-132.61
-125.59
-37.24
-4.03
87.57
109.85
69.88
40.23
26.5
17.18
24.51
-8.49
-37.62
-42.99
-7.37
-8.04
16.14
74.54
78.82
40.55
8.22
-8.76
-42.01
-61.23
-22.35
33.8
63.15
6.38
3.7
-30.23
23.36
63.28
18.18
-80.92
-80.02
-0.65
13.43
-23.74
-46.53
-35.72
-34.52
-87.72
-23.41
79.37
99.33
75.57
-0.8
-67.82
-103.41
-96.61
-6.25
58.46
136.23
106.67
-2.15
-63.5
-67.38
-52.35
-60.54
-22.14
32.84
16.35
26.36
24.11
7.09
37.18
84.56
77.51
40.89
6.32
-17.09
-31.18
-28.69
-21.56
3.56
-5.41
-27.06
-44.4
14.39
70.25
-40.94
-90.2
-26.01
25.97
8.4
-32.48
-65.32
24.12
102.39
59.4
9.3
55.31
47.4
15.15
-34.26
-14.91
34.24
-20.93
-108.11
-122.05
-144.46
-74.03
137.28
148.74
20.24
-60.99
-35.27
20.99
37.1
4.45
14.95
63.97
86.38
44.4
-14.31
-67.5
-60.69
-35.43
-6.01
-5.73
-2.38
-25.53
-27.83
21.75
20.76
1.97
19.23
-7.67
-94.61
-89.62
78.17
165.41
132.5
61.3
46.1
33.68
20.74
-4.73
-57.31
-99.09
-107.36
-76.43
10.23
55.46
38.44
14.24
21.41
-24.79
-81.21
-47.11
20.26
71.96
49.12
-34.85
-4.85
49.05
26.36
7.99
14.47
0.6
-22.04
-74.84
-130.74
-200.11
-29.8
77.55
-1.58
-17.58
-19.03
-53.21
0.4
65.57
89.1
61.91
38.27
50.25
69.76
62.7
53.6
30.24
-34.37
-178.83
-249.53
-134.81
57.34
149.63
103.44
48.57
35.76
38.94
50.05
17.75
-66.52
-72.91
-32.64
-11.09
-82.22
-92.58
44.43
81.3
109.01
86.86
-17.81
-57.28
-42.68
-13.85
22.73
16.46
20.14
54.91
49.49
0.55
-19.47
-6.2
14.82
6.31
12.7
27.22
-16.45
-88.47
-107.12
-72.55
-14.4
-56.93
3.28
110
111.92
72.82
45.54
13
-1.59
-9.64
8.44
31.43
20.48
-18.5
-64.06
-171.19
-263.02
-166.21
6.45
110.77
138.7
69.94
27.15
-0.24
37.2
35.7
43.9
46.19
16.06
0.59
-2.76
-5.29
20.26
38.83
-12.31
-141.99
-189.57
-124.82
47.45
83
38.88
-21.1
-34.46
84.57
144.43
111.64
49.93
33.43
3.14
-68.68
-149.67
-136.95
33.79
123.43
54.39
12.03
-8.48
-8.73
27.54
41.91
9.36
-2.91
28.72
30.91
-65.62
-182.05
-169.71
-58.13
32.78
86.6
35.8
-26.8
-34.63
38.29
91.25
77.74
87.69
55.53
-2.07
12.19
42.89
33.84
-27.14
-66.82
-119.67
-152.21
-40.49
21.41
94.57
120.57
103.16
67.57
23.59
-37.36
-67.6
-50.22
8.74
70.88
76.85
71.46
57.31
64.77
55.76
-5.02
-52.73
-135.38
-131.58
-47.74
25.08
34.46
4.37
-23.45
-0.79
-2.15
-26.49
-80.16
-135.61
-154.63
-146.25
-90.37
-63.1
-3.1
124.12
169.05
99.86
57.35
71.49
91.37
89.6
36.5
-35.71
-64.17
-23.43
46.39
19.19
-37.23
12.4
69.69
41.79
-9.73
-71.08
-117.98
-39.29
34.57
-10.45
-39.65
18.47
55.65
34.48
21.2
-5.4
-20.46
-27.44
-51.24
-69.11
-131.23
-112.51
18.6
161.05
160.15
105.69
96.51
51.61
-39.63
-82.86
-36.24
1.75
3.05
-19.27
-23.63
-17.67
-9.83
-26.34
-25.19
-60.73
-158.77
-159.64
-72.88
12.09
177.51
181.96
112.12
68.61
45.09
37.3
26.81
28.11
-24.32
-113.2
-106.75
-51.24
29.25
82.83
42.26
19.91
31.96
46.34
52.15
42.29
-13.18
-26.11
-46
-123.52
-132.83
-43.57
-36.73
-6.56
50.51
63.69
49.69
41.16
52.04
35.93
-24.49
-1.3
-13.01
24.6
36.01
9.14
-44.2
-77.52
-170.38
-152.37
38.98
173.01
147.27
58.5
26.11
26.78
11.78
-47.81
-64.89
-10.99
-6.56
-66.7
-93.73
-77.5
-5.03
124.62
140.19
105.93
25.89
-34.11
-8.25
56.04
53.94
1.87
-75.97
-151.77
-69.26
38.02
90.64
61.77
-0.02
-12.95
20.12
19.2
26.24
-1.38
10.91
6.17
-3.68
20.51
10.54
4.72
9.84
-25.3
-148.51
-203.87
-126.1
34.84
137.46
135.59
66.79
39.2
18.86
0.74
-15.73
-69.27
-62.93
-3.9
88.14
60.63
-20.77
-88.82
-56.84
-7.28
14.06
28.93
17.21
-19.24
-37.23
-16.72
9.63
-25.81
-73.95
-27.7
21.3
32.98
32.83
70.35
86.93
84.66
53.76
15.93
-38.11
-104.14
-122.23
-55.6
-6.17
7.67
-24.99
3.26
23.85
-33.15
-38.61
-8.21
-26.93
28.18
62.52
65.24
15.68
26.36
72.18
55.45
-19.66
-43.68
1.72
48.92
42.11
-51.87
-126.52
-53.23
68.45
77.8
40.95
33.68
32.56
14.3
-3.26
-48.83
-51.78
-44.5
-49.8
-13.39
18.67
-8.41
-5.62
30.44
-23.14
-54.73
7.04
22.88
11.7
34.25
54.25
58.15
6.85
6.31
23.13
25.97
33.06
-20.67
-149.34
-221.05
-74.02
162.09
109.18
-11.02
-12.29
-5.27
-18
0.39
-2.69
-1.17
-29.63
-40.49
1.34
-21.88
-51.7
17.03
94.11
103.47
101.35
77.11
27.43
-61.96
-66.62
1.12
30.87
3.34
-16.06
-11.12
3.98
-6.36
-39.3
-70.82
-66.51
-2.47
76.05
54.11
-33.46
-64.92
-42.27
15.37
64.74
-16.95
-73.8
-40.34
-53.93
-48.94
31.49
37.3
-54.08
-87.94
40.57
104.33
57.63
61.02
70.43
45.32
28.72
39.64
15.16
-47.38
-88.95
-59.53
2.49
30.05
21.14
-36.37
-82.24
-67.03
-24.45
17.6
18.71
14.3
27.87
35.54
9.85
7.67
21.59
-7.25
15.5
14.33
-87.49
-153.69
-125.19
-37.33
50.82
122.46
111.96
71.01
0.88
-25.01
-17.16
-3.9
-24.11
11.58
29.9
35.87
98.04
105.97
59.92
16.64
14.28
8.04
-12.73
-42.02
-48.4
-17.04
8.33
-30.11
-2.71
24.58
-11.92
-52.66
3.48
-0.96
-40.48
-50.53
-48.4
-47.43
19.85
77.41
94.4
68.86
23.15
6.7
-21.5
-34.57
-61.65
-102.92
-168.44
-144.68
25.29
84.7
52.35
3.85
-17.04
45.36
68.23
64.73
36.84
29.56
18.33
-35.88
-64.07
2.06
49.46
48.41
11.85
8.07
12.13
-7.31
-75.08
-117.22
-86.14
-48.53
-9.33
-41.62
-27.02
28.34
99.42
91.93
46.65
22.72
20.16
11.03
-49.32
-96.52
-35.44
42.79
-5.45
-29.06
55.09
86.45
39.24
-31.37
-4.32
21.86
-20.07
-77.4
-99.56
-31.63
76.6
47.15
10.8
24.15
68.63
83.44
40.05
5.19
-14.01
-28.47
8.68
27.08
-15.97
-69.8
-78.9
-17.12
10.06
8.19
16.4
54.69
71.41
15.73
-8.17
-20.69
-41.17
-73.42
-114.65
-81.33
15.59
66.98
79.79
75.86
12.97
-44.85
-29.91
6.54
54.76
49.35
28.76
34.62
4.16
-75.84
-116.22
-117.13
-68.88
-42.55
-93.02
-129.73
-35.88
26.99
56.97
136.77
145.84
119.69
87
63.43
44.96
-16.23
-90.6
-74.13
-26.21
-21.87
13.78
95.97
97.19
19.68
-29.47
-18.67
20.35
40.84
25.02
-23.28
-76.91
-101.26
-80.52
-72.77
-29.03
-36.64
-71.4
-23.69
46.09
135.86
116.69
60.96
36.54
21.46
-25.52
-111.68
-135.98
-53.05
12.46
-42.99
18.01
78.05
62.91
56.78
87.28
80.53
49.61
26.46
15.68
8.09
-3.94
-13.23
0.87
-36.03
-59.2
-59.51
-1.24
20.75
11.32
-5.55
-16.45
-29.63
-30.17
-11.56
-6.45
-11.91
-68.25
-176.33
-72.81
112.09
138.7
96.88
71.05
50.37
33.85
29.83
30.82
30.4
1.97
-29.81
-51.77
-89.5
-93.2
-77.88
-59.81
-142.54
-274.51
-165.05
115.93
200.99
65.52
-0.44
-47.28
10.18
27.85
31.39
108.35
110.89
79.36
56.79
34.76
33.27
7.14
-46.3
-65.05
-78.01
-50.7
42.84
83.6
59.33
22.15
7.99
-0.27
20.28
40.7
34.52
-6.81
-35.95
-26
15.19
27.89
24.52
1.48
-60.5
-147.39
-162.7
-68.88
31.68
58.98
57.79
48.68
78.56
65.89
52.31
49.51
50.98
20.96
1.53
-11.46
-22.57
-7.65
-38.02
-78.46
-94.54
-100.65
-76.78
-14.82
15.78
3.97
52.52
103.87
72.97
12.92
-5.48
-1.95
-62.01
-176.75
-216
-131.65
10.1
140.17
135.25
92.7
62.11
43.87
28.52
13.56
-1.25
-25.5
-47.13
-55.37
-78.7
-18
80.08
94.78
69.23
36.55
13.68
-44.34
-75.63
-63.24
-60.86
-50.31
6.02
48.91
53.22
18.98
22.29
59.48
45.94
34
23.9
-38.97
-120.43
-123.13
-28.73
9.59
20.27
39.26
62.04
75.84
44.96
-8.3
-50.36
3.33
10.8
-17.27
-21.22
3.2
52.4
90.34
52.45
-8.23
-33.49
-27.24
-14.2
32.36
51.23
15.62
-26.7
-91.76
-144.22
-119.14
-62.32
-31.28
-59.51
-69.21
-1.57
49.33
75.56
81.62
16.91
5.67
8.93
-7.83
-10.54
13.44
13.23
22.84
-14.54
-16.62
15.91
60.1
45.31
28.26
28.46
0.24
-44.87
-118.84
-119.01
-16.95
88.56
68.38
48.76
59.76
53.18
48.22
30.21
-12.61
-85.79
-81.43
-33.13
-14.86
6.57
73.98
78.02
47.01
33.93
19.7
-30.35
-26.27
-19.31
-41.85
-51.79
-54.85
-36.96
20.18
54.3
63.76
61.53
68.76
30.21
-22.23
-31.23
-33.25
-60.99
-85.19
-157.57
-170.12
-113.35
-3.56
76.77
110.78
109.42
94.09
81.73
60.6
43.95
23.94
19.94
-62.52
-174.78
-177.29
-115.25
-85.02
-66.2
65.57
98.54
80.19
65.3
65.65
63.21
55.11
39.29
27.91
30.41
26.47
13.55
3.11
-5.47
-9.34
-21.71
-14.84
-12.94
-4.25
5.88
-29.45
-35.54
-36.76
-20.38
25.21
17.5
-37.49
-23.03
17.62
-24.88
-47.89
-32.42
10.23
42.64
27.44
20.02
38.76
35.95
23.41
-7.89
-34.45
-50.68
-78.84
-52.29
-13.44
4.66
35.83
21.4
-6.15
6.42
21.74
-19.47
-88.43
-119.79
-117.28
-50.77
51.15
89.08
64.18
37.26
61.87
76.06
80.29
81.36
54.84
8.4
39.06
85.08
32.68
-1.3
-37.59
-43.87
4.29
10.29
-24.22
-79.28
-81.78
13.21
101.67
75.86
27.35
15.65
19.87
-4.28
-31.66
-55.76
-115.97
-126.17
-54.27
32.18
59.57
38.73
15.87
7.72
-9.53
-21
5.09
10.28
-42.2
-95.47
-42.65
-6.22
-10.97
-17.08
-54.53
-95.09
-110.83
0.12
105.91
73.88
33.15
53.68
40.88
39.37
35
18.41
25.8
36.43
9.18
-4.11
-30.26
-94
-132.62
-150.09
-126.14
-66.6
53.33
97.48
123.72
133.51
102.07
53.59
26.78
38.29
46.54
19.61
-32.83
-84.5
-86.38
-41.08
53.37
60.12
42.64
18.59
-17.16
-34.9
-2.11
18.54
21.44
23.83
51.87
55.12
17.27
5.02
-6.36
-8.37
-14.29
-45.84
-55.39
3.46
53.53
29.56
6.38
-21.44
-30.12
-10.22
-13.44
-30
-58.47
-62.78
-4.41
25.16
-25.97
-64.08
-53.62
23.1
50.82
15.28
-95.18
-235.11
-214.02
-122
15.79
131.56
160.17
135.3
100.56
74.06
71.4
62.19
38
-9.7
-24.17
30.03
83.74
28.89
-63.82
-51.59
-14.72
-6.35
5
-4.81
-20.85
3.34
17.21
28.22
31.86
51.21
31.16
9.7
6.11
0.78
-36.42
-40.52
34.66
47.64
-21.06
-84.41
-42.47
55.58
77
46.47
26.68
20.74
-3.83
-38.3
-107.21
-113.99
-42.08
-52.44
-67.02
-53.37
-20.19
14.55
41.58
84.09
106.06
73.58
49.41
35.11
22.17
12.66
6.91
-6.35
-27.93
-47.17
-46.95
-26.93
-38.99
-59.91
-81.51
-110.07
-90.39
2.87
63.3
129.54
104.77
65.73
30.92
43.33
45.53
47.83
26.98
-13.08
-8.93
-32.73
-11.34
4.72
-10.77
-13.23
23.71
35.92
19.11
-21.05
-72.62
-52.94
6.84
17.58
4.5
6.43
-11.4
-19.27
-30.94
-76.97
-43.71
11.66
26.71
15.81
0.37
23.01
17.15
25.69
-8.66
-48.54
12.69
63.14
30.06
23.84
-38.75
-97.55
-124.95
-29.99
71.93
101.02
120.04
86.17
43.52
2.84
-25.31
-38.47
15.21
70.04
31.15
-8.85
-30.68
-15.51
0.55
-43.82
-103.09
-114.41
-139.41
-76.89
-26.9
-51.58
-33.72
12.28
34.04
39.26
66.21
46.16
29.52
56.41
88.09
70.66
32.86
24.34
46.86
80.02
72.36
47.91
13.57
-25.73
-20.4
-30.86
-48.35
-36
-11.85
37.28
50.01
1.5
-39.52
-47.5
-39.48
-72.08
-111.83
-94.05
-6.57
39.01
105.28
100.46
30.08
28.64
55.75
24.2
3.06
-22.53
-43.15
-50.47
-37.19
1.2
-1.71
-47.05
-86.16
-50.44
24.45
32.16
18.48
-28.1
-100.61
-95.11
-2.21
113.97
104.83
61.86
-3.64
-58.61
-99.23
-66.17
-12.73
-47.47
-85.78
-66.52
-12.1
101.4
142.47
105.46
98.81
89.22
48.43
34.89
33.53
26.62
-8.21
-81.38
-59.82
1.8
-9.25
-41.61
-36.73
-40.41
4.53
36.81
-15.37
-41.32
-20.17
38.4
58.26
26.47
6.66
-1.71
-13.49
-9.02
26.04
39.02
-12.95
-5.56
4.47
1.96
16.12
24.72
4.54
-43.1
-84.69
-35.1
46.68
71.69
51.27
29.21
15.52
-2.38
-18.02
-24.13
-72.39
-75.96
-10.33
14.05
-28.72
-42.04
-43.12
-81.03
-144.78
-166.26
-58.53
47.15
109.29
114.78
64.05
39.15
29.75
29.33
32.5
16.05
13.68
45.12
32.47
5.11
44.09
54.76
15.13
-1.94
-30.12
-46.3
-12.55
-0.47
-18.7
-8.9
-21.9
-34.24
0.01
-3.52
8.56
35.16
36.6
13.61
-36.78
-58.8
-73.96
-73.61
-34.19
-24.36
1.22
14.41
-2.77
-17.66
8.84
44.69
39.31
15.52
-14.85
-33.2
-40.81
24.2
78.86
110.42
108.8
58.83
32.63
36.13
13.22
-26.85
-40.47
-69.18
-74.81
-61.21
-58.15
-43.88
-29.06
21.82
54.64
67.7
34.15
8.76
-16.49
-11.68
-9.49
-44.66
-65.99
-2.46
44.89
64.43
45.85
-3.53
-58.27
-120.8
-142.76
-46.22
55.04
85.57
80.33
75.96
36.76
28.65
37.97
31.72
-12.13
-39.71
-33.52
-12.07
22.57
-8.38
-51.23
4.29
53.15
39.47
1.18
-30.73
-17.05
-18.08
-61.84
-42.74
27.72
6.6
26.25
38.08
15.45
15.91
14.02
-17.14
-82.49
-64.32
-1.4
38.85
8.66
-67.22
-59.38
19.97
49.47
38.29
18
20.56
-4.37
-73.55
-118.55
-58.79
24.4
74.17
98.42
63.01
37.95
37.83
4.89
-24.94
-22.87
-4.38
-12.91
-33.03
-51.15
-38.17
-35.88
3.89
77.22
41.52
27.61
41.35
66.55
69.61
42.36
19.55
10.27
-18.8
-89.37
-123.9
-126.81
-103
-28.53
20.75
46.24
66.56
55.99
38.93
28.07
26.83
21.67
9.17
7.18
-26.86
-49.65
-33.22
-14.38
24.46
-31.55
-39.26
-5.84
-20.36
-25.68
-10.25
-12.64
-24.31
26.59
22.69
22.19
42.64
56.62
43.71
28.31
37.94
44.62
11.11
-45.34
-83.81
-93.14
-80.72
-51.47
-8.02
10.39
-3.08
44.05
32.6
24.59
38.18
22.77
18.07
25.99
-8.05
-45.81
-92.8
-89.21
-11.1
40.37
90.37
96.1
28.5
-18.21
-41.9
-41.94
-17.58
42.66
71.85
45.17
-2.61
-33.16
2.82
44.2
30.09
-5.74
-12.84
4.5
21.86
8.56
-48.18
-33.76
-34.83
-73.43
-38.93
13.04
-7.46
-36.74
-41.66
-26.48
-2.38
32.05
41.06
-30.4
-18.15
92.29
102.69
44.25
2.77
-19.11
-36.69
-12.74
37.4
42.7
30.6
17.66
3.72
1.9
-14.62
-15.38
-28.79
-29.26
12.96
23.64
-2.76
-15.78
-29.44
-27.76
15.63
66.28
69.4
47.62
45.7
24.55
-4.73
-6.32
-8.77
-77.21
-144.41
-190.94
-67.44
67.56
49.3
-1.36
9.13
65.1
68.85
31.66
6.81
0.49
7.99
2.87
-9.18
-61.87
-93.37
-56.07
34.69
69.13
56.43
48.99
29.64
-12.07
-98.86
-94.68
32.75
80.45
36.66
17.39
35.32
38.43
14.56
3.65
-29.09
-61.63
-28.73
16.9
-18.61
-131.26
-207.02
-128.17
29.88
123.48
89.1
68.27
69.36
46.9
41.46
33.33
15.48
41.3
18.78
-26.35
-7.39
-3.89
-31.82
-20.7
21.94
16.89
-15.26
-34.73
-12.5
11.72
62.58
60.44
9.11
-12.15
-39.27
-100.01
-113.1
-44.26
27.21
79.29
77.46
35.55
-42.41
-73.71
-65.86
-34.69
21.73
62.35
51.83
32.15
11.08
8.52
15.49
-10.51
-46.51
-28.97
9.3
11.81
3.86
1.2
-50.29
-60.7
-23.23
39.72
61.12
35.08
28.99
24.45
-7.87
-48.37
-86.03
-51.42
2.19
38.27
28.65
-13.48
-24.7
-20.33
-4.75
2.4
36.35
45.01
54.52
35.7
4.49
-34.68
-55.5
-35.04
-3.15
6.97
-56.99
-75.39
-114.9
-31.6
104.22
115.42
76.25
53.92
55.21
57.33
54.36
9.13
-40.83
-39.41
-36.83
-57.82
-110.53
-206.3
-197.63
-30.31
79.21
86.66
76.1
40.86
36.57
56.11
37.52
22.67
8.71
13.58
23.47
35.88
20.08
-20.87
0.06
42.83
38.69
-1.85
-26.6
-31.75
-76.53
-103.12
-68.14
-6.36
64.98
90.45
40.73
0.83
21.05
72.75
42.64
3
0.62
25.28
17.39
-7.07
-11.4
-10.61
-26.74
-38.68
-1.52
-2.33
-48.62
-41.87
-39.56
-50.09
8.75
40.83
22.12
14.44
0.42
24.04
26.86
44.28
28.36
34.17
49.11
47.6
7.79
-28.25
-25.19
-52.73
-97.59
-107.81
-64.32
-10.38
10.85
1.73
28.28
16.36
-9.38
29.49
21.15
-36.55
-34.19
-43.36
-44.12
47.05
102.74
70.03
51.76
56.35
56.8
34.34
32.54
42.19
28.64
7.92
-10.83
-49.15
-82.42
-50.88
-10.29
40.61
11.23
-29.2
-34.58
-47.59
-45.89
-39.71
-44.33
-29.5
-20.63
-52.04
-66.29
-26.28
21.27
18.65
-24.46
-73.69
13.57
132.69
79.73
13.18
-0.2
10.77
34.24
24.42
19.4
7.61
6.58
5.52
5.66
1.33
-1.21
22.91
28.3
6.42
-14.79
-36.48
-91.78
-96.97
-51.85
15.28
51.39
52.97
35.49
29.45
2.71
-37.58
-34.8
-22.71
14.76
11.37
11.7
40.54
49.31
66.58
52.83
34.02
37.63
39.48
20.04
-13.76
-41.07
-24.88
1.93
11.09
12.44
-8.49
-33.46
-20.88
12.9
3.83
-38.11
-95.73
-199.55
-210.05
-47.15
10.77
28.44
16.57
-6.66
40.94
99.26
97
60.64
38.16
41.91
29.48
-32.86
-50.87
-10.7
27.92
39.88
28.94
1.6
8.61
30.2
10.26
-11.56
12.12
20.85
30.8
25.03
5.14
-12.38
-27.72
-35.51
-20.11
-26.72
-31.32
-88.22
-143.83
-126.92
-43.19
58.67
89.04
74.38
29.41
12.73
53.15
45.01
19.87
18.78
16.13
-26.23
-42.31
21.1
48.5
16.67
-21.21
-39.45
-78.28
-47.62
33.47
48.13
18.25
10.65
12.73
-10.05
10.09
12.72
3.08
19.86
45.26
29.61
24.06
6.64
-26.69
-19.58
-15.44
9.76
36.4
47.62
24.58
-14.73
-38.67
-24.97
18.36
1.75
-53.1
-22.99
6.65
17.44
-13.53
-35.76
-27.89
-37.42
7.9
38.56
36.03
30.36
12.25
-7.28
-34.24
-33.41
-10.53
-16.75
-34.07
-20.88
-14.21
-4.8
-24.2
-5.32
6.56
36.59
56.04
59.82
74.78
25.75
4.59
6.85
17.19
11.81
-24.84
-30.72
-15.28
-4.57
21.49
25.65
-15.29
-19.86
-18.5
-76.23
-116.04
-95.26
-41.59
40.86
92.66
67.59
42.02
30.72
-7.71
-78.42
-26.75
49.57
42.73
52.39
71.79
58.26
38.91
23.15
19.72
17.41
-1.74
-4.18
-18.31
-67.71
-98.1
-75.4
-36.93
-29.27
-54.67
-58.53
13.64
46.77
33.5
45.07
42.65
4.9
-65.99
-115.56
-129.93
-9.46
56.14
74.76
47.77
42.24
77.14
77.86
45.99
-21.61
-34.39
-5.7
3.18
5.78
-4.33
-6.87
4.33
-26.49
-63.48
-59.51
6.31
13.78
-0.52
6.67
-0.27
-24.25
6.7
47.63
62.91
3.18
-23.06
4.49
54.43
57.34
-2.73
-44.35
-58.28
-27.09
24.58
5.27
-1.08
-3.19
-14.44
-25.12
-67.95
-41.84
47.82
88.18
52.29
-13.41
-77.53
-30.02
23.05
15.67
20.36
5.57
-58.33
-61.12
-12.26
-13.22
-3.11
-14.89
2.98
38.2
33.12
-42.45
-117.87
-70.04
26.71
88.78
88.45
63.99
54.67
37.82
17.03
0.54
-10.93
-16.42
-22.98
-17.84
-6.38
15.06
26.21
12.65
-26.56
-41.56
-1.55
39.78
12.87
-67.34
-115.08
-102.69
-65.12
-18.69
49.96
91.09
72.74
30.92
39.92
59.64
7.68
-11.61
16.69
44.96
43.58
2.74
-32.71
-11.21
1.68
-20.81
2.29
36.17
20.96
-7.68
-26.85
-39.41
-57.05
-15.71
10.34
-12.41
-9.02
43.09
34.21
-5.1
6.67
6.91
-3.3
-18.3
-22.85
3.26
-10.32
-64.01
-129.48
-142.05
-10.86
99.98
96.47
50.21
46.89
40.98
15.82
-64.33
-153.95
-135.54
12.62
106.23
72.42
-16.07
-58.7
-40.06
44.57
91.47
72.17
51.12
31.51
8.42
3.2
8.3
-9.67
-29.92
-21.53
-7.16
-1.63
-6.44
-48.73
-105.81
-97.77
28.78
144.22
110.96
16.5
-23.48
34.93
61.95
38.53
-5.2
-46.86
-82.11
-94.38
-4.83
71.25
62.92
37.79
49.67
40.1
27.53
7.04
15
7.65
2.95
5.78
-3.46
-46.64
-45.06
-7.57
2.94
-16.11
-21.97
-1.47
-5.09
-41.57
-75.85
-86.29
-94.97
-144.04
-96.8
54.21
89.7
58.25
-6.89
-22.89
-54.56
-56.6
-54.51
55.49
111.7
75.14
26.5
28.8
62.34
67.68
65.51
59.24
37.77
34.77
46.11
8.57
-69.31
-75.16
-65
-31.3
-5.14
-12.79
34.51
59.76
70.88
31.43
-6.93
-16.21
-27.72
-21.31
-11.46
9.13
-8.15
-28.43
17.76
63.78
64.85
30.13
13.03
14.05
-15.2
-33.84
-5.95
2.51
-69.32
-148.5
-155.85
-85.74
-22.64
13.99
62.01
71.82
45.5
33.94
1.95
-53.34
-75.77
-57.97
-18.99
21.64
18.78
8.05
-17.2
15.33
51.32
77.87
68.41
46.09
19.2
10.96
28.63
40.28
44.46
26.17
-5.39
-12.91
0.67
9.39
14.6
17.51
10.21
10.45
3.39
-1.57
5.97
-8.25
-27.75
-53.28
-98.19
-88.62
-28.07
42.2
47.88
33.63
40.77
0.92
-24.53
-8.96
-25.96
-1.75
44.86
57.86
26.02
6.31
-3.6
-36.51
-73.03
-75.05
-45.14
-43.3
-19.03
8.94
-44.57
-40.27
89.76
98.15
32.26
-18.43
-9.83
27.31
10.96
26.25
39.56
37.96
27.25
-3.89
-10.82
-51.98
-177.32
-231.63
-109.29
-18.21
28.89
89.75
135.92
125.44
77.33
45
32.92
10.27
-8.5
-24.16
-13.04
21.5
17.65
7.16
-5.84
-29.01
-35.09
-65.94
-50.52
-34.76
-33.08
1.91
45.87
55.25
43.24
46.67
37.25
4.49
8.51
35.35
22.88
23.27
35.49
14.32
-0.97
12.78
21.81
-8.78
-56.38
-66.65
-30.98
-3.65
-1.84
-29.1
-62.84
-129.63
-148.34
-32.32
57.73
87.11
94.7
76.12
53.31
48.57
72.98
68.54
24.09
-10.37
-20.41
-24.89
-58.98
-111.77
-123.56
-114.72
-81.75
-31.29
18.22
65.96
93.58
74.57
60.56
62.72
43.06
24.58
34.24
39.44
31.51
5.5
-54.23
-73.03
-35.29
-15.8
-37.32
-103.27
-90.71
-40.01
-0.94
-14.89
-24.85
-9.86
52.39
75.64
60.29
3.45
-60.33
-24.44
45.91
47.33
45.11
31.13
29.39
21.09
9.1
-7.09
-40.51
-79.58
-58.92
21.6
72.94
76.95
23.34
9.54
25.43
41.77
39.67
-6.92
-54.31
-25.8
3.73
-20.65
-10.39
7.11
-9.98
-47.02
-54.38
-35.14
-27.01
-18.13
-7.4
-18.36
2.19
27.83
27.5
25.05
-1.41
6.52
-12.85
-10.23
11.51
35.29
33.35
-12.59
-34.91
-46.08
-92.88
-74.02
-14.89
22.66
19.03
27.57
63.48
83.32
73.98
76.68
54.18
4.09
-28.94
-39.26
-49.43
-61.31
-31.85
22.03
41.05
42.83
38.97
30.75
28.05
9.14
-0.88
-0.21
-4
-13.45
-19.06
-42.21
-51.67
-42.12
-53.04
10.28
64.38
42.61
34.64
35.58
28.98
-45.58
-111.43
-117.14
-40.26
39.07
46.84
34.58
26.92
-6.56
-26.9
-6.12
-32.93
-90.4
-59.14
15.31
59.93
103.61
25.09
-70.6
-23.7
63.32
88.75
76.5
58.56
37.32
14.14
-49.59
-96.28
-63.34
-3.77
9.31
12.44
10.81
-5.95
-19.72
-12.69
65.81
75.6
-0.54
-20.28
-19.76
-48.6
-54.29
-0.8
8.86
20.4
36.97
17.87
1.7
8.72
7.16
23.04
8.2
-26.75
-45.3
-38.89
31.95
114.5
27.27
-59.97
-59.79
-33.6
1.99
44.63
34.51
10.59
-10.04
-48.53
-72.74
-33.26
19.18
-25.38
-93.75
-72.83
15.68
113.17
87.37
22.06
39.39
64.76
10.78
-54.32
-76.91
-67.69
-35.12
16.62
25.56
59.67
36.11
10.97
25.67
39.61
35.55
3.16
-56.47
-53.56
11.13
21.77
11.08
-7.02
-39.08
-50.52
-21.27
-44.11
-54.32
-3.41
29.83
14.82
10.05
37.09
68.25
67.86
42.21
12.36
-1.57
-51.71
-106.27
-112.44
-106.56
-23.9
98.85
61.08
7.77
34.21
31.44
-0.74
0.98
28.65
48.87
45.74
32.55
31.53
6.36
-40.09
-43.93
-25.91
30.79
34.41
-26.11
-77.36
-109.86
-69.43
-12.58
1.4
-25.16
-3.59
63.64
84.44
76.57
50.31
18.52
-13.16
-11.51
15.17
26.2
14.77
-4.29
-23.17
-40.94
-8.84
18.68
-8.14
-41.91
-34.12
-0.89
25.32
23.48
17.23
20.17
24.93
9.55
-8.63
1.5
17.2
17.8
6.76
-0.76
-9.5
-11.82
-1.92
10.86
4.42
-5.61
-13.76
-14.75
-14.47
-15.2
-9.99
-2.43
-2.51
0.3
8.67
12.59
9.57
2.94
-0.76
-3.36
8.53
15
7.88
-3
-6.97
-6.07
2.26
13.86
-15.39
-24.31
-21.01
-9.27
4.76
14.71
14.42
2.62
7.68
7.71
-1.74
0.19
0.92
-12.59
-33.26
-39.5
-4.7
11.72
1.89
-9.73
-25.63
-27.05
-6.94
8.61
7.17
0.32
15.27
23.98
20.68
12.88
-2.85
6.53
17.14
13.15
-0.23
-5.24
-6.68
-6.84
-7.48
-10.57
-11.64
-14.78
-13.29
-13.69
-16.94
-21.25
-6.2
9.28
11.6
10.78
10.78
0.63
-0.08
12.63
25.07
27.16
17.61
1.57
-15.25
-12.88
-6.01
-1.28
-7.2
-10.51
-16.36
-13.5
-9.65
-8.44
0.6
11.94
13.56
20.5
25.03
16.01
11.85
7.38
4.16
7.91
12.39
3.26
-6.46
-9.42
-9.58
-5.63
-8.14
-9.53
-2.65
2.02
5.97
8.34
10.89
9
10.09
12
10.52
9.46
6.67
5.46
2.95
-4.5
-3.05
-4.95
-4.37
-8.12
-10.92
-6.91
-5.57
-8.26
-4.75
3.03
6.22
9.39
11.93
17.45
14.57
11.18
6.37
4.45
-4.37
-12.72
-11.49
-7.07
-1.63
-6.1
-10.55
-5.24
-3.82
-13.92
-10.58
3.37
0.97
-2.32
-7.94
-8.66
-5.89
0.88
1.19
1.14
4.78
7.1
7.35
11.95
10.28
7.84
2.64
6.54
4.12
0.4
-2.63
-4.81
-9.96
-11.12
-11.91
-14.3
-15.38
-11.91
-12.04
-4.63
-2.09
-4.82
0.74
13.79
23.67
17.23
11.57
6.21
5.49
0.65
-2.39
-3.95
-6.99
-13.61
-10.62
-12.39
-19.15
-18.69
-5.36
5.62
6.59
3.74
3.6
6.67
10.28
8.46
13.67
12.02
8.9
2.42
-10.76
-12.38
-8.64
-7.58
-12.38
-13.83
-11.08
-4.23
-1.84
-6.38
-12.85
-5.69
12.95
14.4
13.6
9.94
7.4
4.12
2.24
1.25
-2.59
0.14
0.54
-3.78
-9.56
-13.33
-12.47
-10.51
-6.44
0.14
7.41
8.64
8.5
9.3
9.5
9.45
7.28
2.91
4.73
4.38
-2.43
-2.41
-0.61
-2
-2.6
-8.19
-11.66
-9.29
-8.69
-7.36
-2.63
1.7
3.65
5.05
7.08
10.55
13.3
6.94
-8.8
-17.55
-11
4.69
9.28
4.39
-4.32
-16.12
-27.05
-25.22
-15.43
-8.3
-10.44
-7.78
0.83
7.57
13.03
11.78
2.22
4.86
6.13
9.75
15.92
6.2
0.59
-5.58
-8.07
-13.79
-16.59
-13.71
-15.23
-9.07
-4.86
-1.76
-0.6
-3.04
-8.99
-3.07
17.43
22.42
18.23
13.29
3.92
-0.11
-3.36
-4.58
-6.04
-10.23
-13.43
-11.85
-12.89
-14.59
-11.85
-9.8
-3.18
5.33
7.45
7.63
5.77
7.65
9.89
7.43
3.69
2.47
-0.49
-7.32
-10.65
-11.31
-9.25
-9.57
-8.93
-11.13
-9.9
-7.16
-3.72
-2.45
3.07
4.23
3.68
-1.45
-3.28
5.06
4.38
-0.6
-5.9
-7.86
-0.22
4.96
-2.19
-13.56
-22.84
-21.5
-10.57
-1.63
2.02
-3.11
1.54
6.12
6.19
8.56
6.12
6.89
8.61
10.87
4.66
1.71
-2.55
-5.99
-8.49
-9.24
-11.07
-15.5
-15.56
-12.31
-6.7
1.33
4.03
6.13
7.52
9.15
8.05
5.15
-2.36
7.55
6.98
-2.81
-1.46
4.98
7.26
3.17
-2.78
-5.44
-4.97
-13.54
-15.04
-6.34
-2.56
-0.24
4.26
8.19
15.7
20.17
18.82
15.73
10.86
7.66
2.89
0.28
-7.9
-7.91
-4.85
-12.1
-15.85
-6.34
7.31
10.48
7.27
9.95
12.74
17.11
15.87
17.59
13.93
8.38
7.53
6.12
4.94
-7.32
-17.33
-19.16
-9.36
-1.63
-2.93
-7.48
-7.98
-8.66
-11.31
-17.19
-17.84
-11.64
-6.27
-2.52
5.51
9.8
7.67
6.4
2.65
-0.4
-8.02
-12.04
-12.14
-9.41
-9.68
-14.67
-17.09
-12.64
-7.33
-5.49
-4.74
1.1
0.47
0.98
3.47
1.25
-2.72
10.32
18.78
8.65
-0.2
-5.23
-5.61
-8.26
-7.74
-19.44
-20.33
-12.75
-7.69
-0.22
1.47
5.4
10.46
8.48
6.66
8.64
11.75
13.21
3.06
-7.12
-9.31
-5.15
-8.5
-8.36
1.47
-7.42
-16.98
-12.68
-12.46
-7.69
-4.23
-0.47
-1.63
-3.63
3.99
12.01
17.75
14.37
12.43
14.73
10.63
7.57
3.72
0.74
-1
-3.84
-6.66
-14.92
-11.55
-7.68
-2.39
1.94
4.92
10
7.62
5.98
10.09
11.94
7.29
0.9
2.1
5.84
1.92
6.76
10.17
0.38
-16.22
-36.09
-29.87
-7.96
-9.61
-12.03
-6.48
2.79
12.78
11.67
14.59
18.8
18.5
15.65
9.02
3.88
0.7
-4.91
-19.68
-23.67
-13.82
-2.81
-5.16
-9.07
-6.29
-0.35
8.12
10.64
3.42
-5.47
-1.43
0.02
-9.42
-5.62
3.92
17.67
7.77
3.12
2.82
-14.83
-27.41
-21.84
-19.51
-20.15
-18.61
-17.04
-4.16
-11.34
-6.22
10.11
18.74
27.31
21.14
-4.16
-9.22
-0.71
2.43
-1.43
5.32
-5.81
-30.1
-35.93
-21.14
-0.9
16.38
2.7
-18.75
-16.12
-8.82
-35.64
-32.15
-2.69
22.35
33.33
22.75
-11.18
-18.53
-5.61
3.07
-6.86
-17.12
-7.92
-10.68
2.82
16.59
9.52
0.48
-0.42
3.58
11.08
22.78
20.63
17.26
17.43
11.96
11.69
7.17
-11.23
-7.47
-13.07
-25.88
-25.83
-19.87
-33.49
-5.75
12.26
-6.28
-13.56
-10.41
-1.33
2.06
5.8
-4.87
0.22
17.86
16.49
18.8
-0.03
-34.53
-50.53
-30.36
-10.42
10.85
5.92
16.24
24.77
17.65
21.73
12.98
-11.59
-4.95
18.57
31.26
20.76
12.33
-8.28
-24.61
-4.85
5.58
13.71
-3.03
-14.58
-19.47
-37.01
-26.12
-11.26
5.28
4.87
-1.56
-18.63
-11.74
12.09
-4.56
-3.58
19.91
23.73
-16.25
-68.91
-34.59
12.51
12.69
17.55
10.09
-7.05
-15.52
-6.05
38.24
47.03
15.52
26.08
49.58
32.61
-19.9
-48.41
-55.37
-44.67
-2.76
-12.6
-11.22
3.01
10.44
-46.52
-52.56
13.88
48.6
45.94
27.74
-0.56
-10.04
-15.53
-17.97
-18.89
-25.69
-82.2
-54.73
23.4
52.1
19.51
-16.3
-1.45
2.92
-23.75
-46.25
-38.67
-37.33
-34.54
-64.8
-117.59
-99.53
-27.91
24.15
64.68
62.72
59.8
68.85
78.15
71.84
38.25
10.57
-25.53
-43.42
-14.33
-4.87
-28.85
-11.94
0.22
-13.93
-44.87
-50.18
-42.81
-13.79
47.6
27.38
-12.05
17.77
49.94
41.93
21.26
-9.68
-53.52
-50.29
-25.36
5.32
38.74
16.92
-1.7
10.85
-3.31
-46.21
-26.75
30.44
54.47
15.9
-110.52
-203.35
-112.23
47.01
123.35
75.15
10.04
-24.6
-46.16
-49.67
2.32
41.23
27.77
8.27
-27.63
-31.99
6.28
67.11
68.4
45.19
49.74
69.76
75.69
88.73
27.07
-33.18
-36.36
-14.8
-9.4
-60.3
-69.33
-22.75
24.04
25.13
-35.05
-96.9
-168.84
-65.85
79.65
91.47
83.76
69.34
58.16
43.62
45.16
46.54
45.77
22.76
-27.86
-41.14
-1.08
-3.32
-111.41
-120.16
-84.29
-102.41
-114.39
-80.42
23.42
115.01
122.56
52.48
40.62
22.92
24.44
7.22
-24.93
33.87
56.4
15.45
-22.13
-12.87
15.18
74.91
92.45
51.96
9.62
-37.53
-53
-94.37
-139.9
-83.34
-13.31
-12.64
2.07
26.1
84.84
70.33
42.2
16.13
21.12
47.4
37.99
32.42
-15.72
-141.64
-217.91
-201.87
-63.85
76.98
148.61
100.86
72.59
88.9
70.11
43.41
13.73
-18.26
-71.26
-45.79
36.75
33
-65.28
-104.78
-24.12
51.83
30.51
6.43
-20.4
-60.28
-71.7
-82.39
-77.64
8.24
102.51
57.86
-51.2
-103.88
-13.81
47.99
64.53
65.78
103.76
88.15
68.93
41.65
-57.59
-107.51
-61.39
38.65
92.8
85.33
37.77
21.75
43.04
36.58
23.52
48.13
58.56
49.48
52.41
60.48
25.67
-59.42
-133.3
-108.06
-46.5
-82.15
-125.88
-56.68
-0.83
11.29
-15.69
-1.83
51.46
56.75
26.27
79.9
91.66
61.18
57.78
57.34
23.52
-85.1
-135.47
-106.32
-15.38
-22.65
-103.43
-171.33
-166.77
-41.57
93.47
128.69
115.94
81.94
70.08
58.46
25.56
-53.83
-129.12
-47.91
65.03
47.87
-33.38
-41.64
34.62
95.79
35.94
-25.7
-37.95
-13.05
39.06
81.08
75.28
4.2
-150.64
-155.67
19.42
77.77
75.57
85.04
62.29
53.93
5.01
-81.59
-93.38
-45.21
22.74
67.2
55.06
10.65
35.17
109.28
126.27
73.08
26.32
-68.94
-129.85
-124.17
-45.9
-2.95
73.41
115
110.12
94.53
74.74
38.25
31.83
54.56
33.69
-36.22
-54.77
-27.63
-7.7
4.45
-16.56
-11.66
-6.76
-14.14
28.04
65.94
21.59
-66.17
-102.63
-39.61
24.25
-28.34
-48.08
2.45
29.6
-87.94
-253.17
-212.49
9.17
99.74
153.98
184.74
127.88
107.86
79.9
62.77
62.12
19.69
-18.49
-26.96
-62.74
-127.2
-114.39
-11.89
45.2
60.75
98.37
127.99
88.55
48.6
31
21.94
20.4
6.34
13.23
27.2
22.01
-5.7
-32.78
-93.53
-94
-56.31
-47.71
-120.04
-72.03
34.16
34.64
30.73
-28.75
-54.71
23.38
71.81
76.14
47.02
11.16
-17.35
-50.97
-82.01
-110.83
-78.98
-55.14
18.79
34.74
25.06
5.76
-38.09
-17.51
54.16
21.24
-2.53
42.12
18.23
-18.07
-89.46
-295.14
-234.09
41.59
167.41
142.4
99.8
89.73
40.14
-38.47
-118.96
-96.06
-5.22
46.85
71.46
95.03
80.62
61.63
74.37
49.45
7.99
-43.34
-89.17
-82.32
-35.68
56.17
96.3
105.8
83.7
-8.62
-32.95
26.86
59.35
10.44
-45.31
-66.36
-157.08
-404.76
-446.9
-205.11
122.87
294.4
261.08
196.23
123.33
79.22
52.75
7
-3.59
2.88
-37.55
-56.77
-70.02
-9.17
25.43
-111.56
-211.85
-201.63
6.8
151.11
78.94
-47.78
-88.54
-96.13
-267.41
-161.36
64.89
171.86
228.89
195.53
130.5
56.31
0.4
-55.88
-132.02
-192.45
-188.89
-95
72.71
194.16
204.49
175.89
144.32
104.57
35.47
-70.26
-146.97
-153.15
-119.52
-16.03
42.59
101.73
67.33
-79.28
-113.55
-92.69
-146.07
-156.82
-33.25
76.65
119.97
135.6
143.58
80.11
30.03
-7.25
-73.82
-134.01
-76.26
13.51
-27.86
-264.15
-469.27
-237.64
-6.15
98.24
186
161.49
79.88
74.06
164.6
202.51
27.42
-138.9
-140.03
-27.07
69.32
23.82
45.88
116.39
70.02
3.61
-25.29
-84.98
-96.55
-55.85
-66.5
16.13
91.82
88.21
111.94
115.74
109.79
82.42
49.05
-16.64
-61.56
-61.23
-59.34
-145.9
-200.45
-136.23
-28.71
-27.39
-37.81
-66.22
-56.43
-136.25
-222.99
-148.18
46.19
124.53
73.23
29.81
-31.27
-64.87
-78.55
-47.44
-73.99
-41.86
61.24
-88
-123.15
131.98
252.44
133.73
136.22
203.12
251.39
228.36
141.36
88.47
72.87
102.31
125.07
102.69
74.29
-14.67
-86.06
-21.04
68.08
53.16
2.29
-147.97
-194.85
-4.51
165.16
137.72
65.66
3.29
19.07
60.15
34.46
-59.04
-96.54
73.4
135.71
73.79
-43.66
-81.58
49.34
62.43
-14.44
43.54
-5.57
-166.08
-192.82
-85.29
-59.65
-105.72
-132.09
-75.46
13.58
49.67
26.35
2.23
-26.61
-84.24
-64.03
28.19
128.53
153.27
152.45
104.69
74.47
30.69
5.15
12.17
4.43
-115.27
-203.63
-73.73
20.05
-71.86
-113.82
-13.6
68.24
53.38
35.67
5.18
-167.79
-238.64
-15.94
153.73
193.74
100.29
12.62
-17.9
-21.53
-14.95
57.03
56.47
73.47
165.91
139.4
85.18
40.7
-23.42
-63.19
-97.29
-7.56
96.9
126.08
107.22
68.95
44.78
3.94
-59.38
-121.74
-130.28
-92.69
-107.66
-108.46
62.31
167.66
99.97
-15.32
-68.36
-49.75
16.07
56.19
76.92
117.55
111.57
103.83
78.6
42.44
-8.86
-93.65
-55.88
23.1
62.85
31.47
-133.34
-208.1
-49.19
133.43
78.73
-76.27
-49.25
46.23
79.42
87.71
-8.61
-185.08
-273.87
-65.36
129.61
209.43
194.69
173.81
112.95
-25.29
-61.29
9.51
81.5
56.08
9.55
20.58
57.21
82.51
48.48
18.66
28.52
32.05
59.29
28.69
-18.29
-4.9
1.94
-90.52
-81.43
41.09
13.29
-58.27
51.92
143.92
120.45
52.19
37.05
8.29
-49.06
-62.56
-45.07
-71.51
-124.6
-140.22
-75.42
-35.26
29.79
153.4
167.83
115.99
53.89
37.08
55.47
18.4
-31.27
-161.72
-132.59
81.39
91.38
9.55
-7.12
74.88
75.14
-24.66
-219.91
-314.23
-102.48
134.2
240.74
229.33
147.66
94.76
62.23
-9.73
-34.55
-22.63
-72.29
-14.08
58.79
110.43
22.84
-52.19
-3.86
50.24
35.6
2.75
-4.78
14.45
58.56
-1.97
-106.18
-193.25
-224.52
-155.87
73.61
196.72
199.01
103.79
-65.25
-54.35
36.99
4.61
-53.54
-78.13
-28.86
86.45
22.62
-108.16
-224.4
-187.53
84.54
279.73
259.64
148.48
108.41
95.08
80.46
75.04
48.4
-103.06
-219.57
-49.28
111.7
52.51
-114.26
-187.04
11.37
129.58
168.97
197.77
153.19
69.67
3
-55.88
-80.42
-105.44
-15.51
104.48
150.95
164.11
74.98
-75.97
-148.55
45.36
173.35
148.27
66.92
29.03
14.94
-0.92
-37.02
-104.82
-96.35
-75.31
-168.78
-177.62
-36.48
73.88
130.39
153.03
58.89
-37.62
-48.51
-154.7
-273.24
-125.62
98.06
180.29
172.42
124.59
89.39
73.81
30.61
55.6
123.29
110.58
52.25
31.59
22.53
43.07
0.64
-246.36
-393.83
-94.66
125.84
45.37
-66.95
-74.63
61.04
128.6
123.04
113.16
93.22
80.35
54.47
-2.99
-36.63
-10.8
74.95
67.33
-131.36
-187.53
-90.5
-34.04
69.69
25.84
-35.11
19.84
-9.92
7.89
-11.45
38.16
99.85
102.05
69
24.35
-51.33
-145.1
-181.3
-18.94
154.18
41.36
-57.62
49.46
172.02
183.6
135.89
104.61
57.69
5.6
-35.33
-152.13
-342.92
-227.65
70.69
202.93
158.17
115.94
64.45
17.16
2.28
-7.21
-66.38
-77.51
-37.23
-9.33
-28.94
43.93
78.8
65.9
65.72
25.81
-47.89
-63.57
45.03
91.72
38.41
-15.53
0.44
29
29.49
4.31
13.88
81.4
102.81
62.16
12.08
-114.26
-170.18
-126.03
8.38
-113.72
-101.99
98.39
184.58
93.77
-6.72
13.19
32.35
-62.54
-157
-116.9
-57.62
83.66
50.94
-56.5
6.03
93.38
74.41
9.44
118.04
170.53
152.43
111.47
27.2
-42.35
-30.9
24.77
71.68
70.5
12.51
-30.86
-2.84
-12.19
-39.76
-19.79
-3.48
-84.43
-180.43
-202.85
-27.15
33.12
-10.26
16.18
84.31
167.06
215.83
178.21
144.8
115.37
56.71
-0.69
-43.09
-86.6
-74.83
-56.5
-103.91
-68.49
35.83
32.17
-49.86
-136.42
-102.07
39.56
50.62
10.55
58.36
36.23
47.95
78.05
101.67
78.51
59.78
51.51
13.12
-19.07
-89.68
-237.42
-261.89
-89.49
159.68
209.32
149.35
108.93
96.7
91.66
80.39
28.43
-37.48
-152.9
-201.45
-138.05
-56.76
106.86
201.67
134.43
74.49
76.41
84.07
-86.81
-292.15
-193.74
27.37
43.01
-18.56
32.55
94.39
109.71
74.29
40.56
69.33
83.21
42.49
-21.02
-99.49
-90.86
-0.61
42.14
25.41
-49.97
-126.87
-20.59
104.39
131.67
76.12
12.84
-33.98
-64.2
-89.45
-145.49
-177.46
-64.45
98.37
73.4
30.03
75.85
146.74
109.14
42.23
53.46
26.98
-85.38
-163.29
-48.51
144.31
173.3
112.35
24.99
-13.37
33.59
73.93
-62.18
-149.65
-47.84
46.17
74.93
55.57
5.28
-19.89
-39.16
-1.34
-19.15
-29.89
-1.14
64.4
52.91
21.25
3.8
47.65
52.34
42.07
41.21
20.35
-57.71
-114.15
-72.23
-27.89
-0.04
20.08
10.75
-9.02
20.06
59.91
-10.17
-36.14
18.06
37.97
7.75
-24.38
1.59
24.01
-3.58
4.25
20
18.96
-18.29
-10.85
29.13
-35.87
-117.83
-59.7
25.74
91.12
106.16
72.81
39.12
4.39
-13.8
-16.69
-70.6
-146.77
-56.8
42.71
82.31
110.6
133.85
85.96
50.19
38.14
36.31
41.42
22.61
-22.77
-61.67
-103.63
-82.73
11.85
-8.51
-79.91
-46.48
60.62
83.59
-6.73
-111.54
-71.35
-12.82
47.92
75.63
80.68
88.91
66.94
11.42
-98.96
-62.29
28.43
73.96
-3.21
-31.37
80.26
60.42
-12.54
-6.47
43.61
72.53
40.32
-52.84
-63.84
16.54
100.67
52.08
-2.55
-37.34
-51.05
-76.91
-89.64
-37.41
-47.26
-17.2
25.23
76.63
83.88
48.35
18.62
8.56
-25.61
-58.14
-74.91
-113.86
-136.67
-88.56
73.59
222.09
205.25
102.44
56.89
59.83
68.36
36.12
-21.72
-39.33
-28.34
-122.33
-148.22
-54.55
35.28
69.88
48.89
68.86
70.33
70.84
72.7
-11.41
-31.94
30.5
-15.38
-98.81
-94.33
-55.27
-71.93
-54.64
28.62
79.8
87.72
73.46
52.04
6.28
-31.14
-122.27
-131.39
-65.18
-32.53
-43.12
-54.61
93.45
193.08
159.93
106.49
47.39
-12.01
-37.54
-76.75
-19.23
45.25
84.15
37.78
39.18
16.8
-5.5
65.26
103.27
39.2
-10.88
42.16
40.79
10.87
-20.1
-25.09
-45.24
-72.76
-54.62
-16.59
12.8
3.66
-29.58
-23.55
14.13
47.91
33.54
-30.32
-148.2
-195.99
-112.76
-37.6
63.34
114.19
73.2
70.47
40.59
5.73
-1.05
-19.83
-6.08
25.52
37.08
39.51
104.64
95.07
26.54
-6.15
-45.37
-75.62
-138.83
-187.79
-129.32
-39.05
92.37
115.05
89.15
84.82
69.33
59.66
47.54
46.27
57.54
59.75
17.32
-36.14
-74.94
-22.99
-8.6
-50.7
-69.31
-19.9
40.67
67.51
101.89
44.51
-7.52
4.64
1.7
20.8
38.59
5.65
-45.02
-62.4
-42.5
-29.95
-7.4
-13.71
-42.1
-53.3
48.06
68.9
27.15
48.7
56.98
23.29
-33.81
-21.81
-15.87
8.64
56.12
54.31
30.43
14.9
-11.33
0.42
43.98
-32.24
-126.96
-77
26.17
61.99
-10.4
-71.8
-66.07
-7.59
35.77
5.21
42.57
40.51
-0.5
16.08
27.1
27.15
-8.61
-68.49
-69.84
-10.84
15.41
17.1
24.47
30.94
-5.12
-42.39
-6.62
19.23
1.99
-61.87
-27.86
125.74
127.8
91.99
88.85
32.32
-118.65
-182.19
-112.13
-73.86
-34.73
54.19
94.27
42.57
12.76
43.95
101.41
124.82
85.46
76.16
40.46
0.29
-19.61
-14.87
-23.73
-24.61
-16.53
3.04
30.8
41.54
40
36.56
47.07
42.79
15.87
-14.9
-25.53
-8.98
-60.84
-110.63
-119.38
-113.22
-34.05
65.18
171.65
163.84
77.62
-7.04
-112.01
-203.74
-169.37
-97.32
-27.47
22.96
88.23
127.75
116.24
105.17
57.7
12.28
-18.72
-67.98
-48.79
24.19
12.44
-32.33
-38.59
-52.28
-97.52
-32.12
34.4
30.69
31.78
29.61
21.52
2.68
-3.81
-48.24
-64.15
-20.09
13.86
-17.84
-47.77
-94.79
-17.9
58.6
58.06
43.56
35.31
0.31
-4
17.43
5.67
18.67
56.67
83.53
84.02
46.59
22.83
39.12
1.59
-23.16
-24.56
-39.77
-32.39
53.73
68.81
-3.67
-47.16
-41.76
-55
-29.52
39.4
80.45
57.35
-6.42
-39.4
-84.95
-121.75
-185.28
-180.25
5.74
146.41
152.71
84.77
30.44
-3.14
15.92
29.26
-11.91
-25.88
28.67
25.67
28.6
75.86
96.62
44.88
23.4
42.28
70.57
68.53
29.16
14.27
2.55
-17.71
-7.04
10.61
-5.57
-33.94
-51.7
-85.4
-111.25
-144.39
-160.82
-108.13
15.75
62.26
57.86
38.72
39.29
62.98
70.81
13.26
-3.84
26.32
28.91
-12.9
-10.73
27.22
-14.81
-72.64
-75.05
-55.71
-68.92
-54.7
-40.29
-70.32
-54.72
48.58
77.8
107.28
128.69
110.96
95.33
64.76
41.77
36.06
-24.31
-78.02
-107.63
-58.22
-47.3
-56.37
94.34
95.26
10.76
-8.97
20.36
39.68
41.94
156.84
197.97
84.1
9.97
-34.76
-81.28
-104.99
-76.27
-108.37
-130.21
-134.28
-6.58
115.22
118.39
53.54
-14.72
15.68
-9.32
-46.93
-94.89
-90.64
-9.9
63.21
82.59
52.48
50.78
47.67
27.05
12.05
40.46
34.76
1.57
-41.3
-58.64
-37.18
0.87
21.84
28.12
2.88
-34.47
-39.17
-60
-87.65
-45.15
3.32
-57.07
-53.3
17.53
68.99
56.12
48.03
43.52
51.83
35.32
-27.58
-76.21
-53.42
-26.3
-29.59
-29.97
49.81
64.99
-14.44
-117.41
-55.91
105.31
133.4
127.11
124.65
106.77
57.1
-25.46
-44.35
-20.59
-4.67
-14.03
-33.5
-32.66
-12
11.38
-4.48
-10.58
31.81
52.32
63.95
28.67
-38.71
-109.48
-125.5
-93.99
-87.48
-87.01
-42.29
3.95
89.64
168.97
106.65
51.24
26.15
11.45
-29.13
-106.06
-190.88
-190.06
-39.36
93.02
141.17
122.27
63.63
15.45
91.38
110.97
75.86
26.83
-16.17
-6.31
6.91
-16.09
-50.86
-33.68
23.93
25.59
7.07
-40.48
-63.48
-45.02
-69.97
-44.21
-5.89
106.83
113.25
36.7
-16.24
-15.42
-21.06
-24.45
-25.47
-66.15
-85.4
-64.13
-115.93
-160.5
-54.77
110.37
27.41
-26.48
43.99
69.55
69.27
79.73
49.92
-25.99
-10.42
24.3
66.75
109.93
76.77
19.29
-15.34
-57.34
-145.34
-181.26
-84.04
94.87
183.66
139.79
57
30.07
-5.46
15.74
61.24
80.12
51.22
-42.32
-73.59
-141.65
-152.5
-0.8
77.55
71.91
58.3
61.77
30.2
-24.94
-47.86
2.97
-3.72
-37.95
-101.15
-126.9
-50.43
26.54
46.18
38.76
35.46
37
36.54
0.77
-2.46
-20.93
-68.88
-44.71
15.5
33.33
25.01
-19
-64.48
-158.16
-126.75
-102.3
-132.69
-109.92
59.32
129.98
58.94
46.27
39.65
60.36
133.93
131.87
94.62
36.16
-16.04
-63.83
-64.33
-32.77
16.25
69.95
88.25
69
88.93
83.69
35.6
-18.69
-59.15
-57.7
2.85
54.06
59.87
38.01
-3.48
-43.01
-52.76
-71.45
-179.33
-212.03
-63.6
46.46
112.94
110.13
72.67
54.42
55.11
68.98
54.18
36.44
22.81
4.49
-27.86
-82.55
-135.57
-143.29
-75.57
-28.34
-52.92
-57.83
32.65
55.04
69.13
54.74
5.24
-5.07
16.61
37.02
50.77
35.84
25.16
6.24
-16.84
-7.23
27.9
1.14
-90.12
-13.09
100.28
70.36
19.13
23.93
8.24
-98.56
-177.01
-126.07
-36.87
32.67
34.78
28.31
8.79
43.16
85.01
72.88
44.71
38.16
51.29
-59.99
-184.34
-108.79
16.67
13.5
25.83
50.88
44.65
14.17
6.41
-31.3
-28.45
10.35
33.04
20.73
-47.79
-59.21
-42.29
-40.74
-2.94
22.96
16.15
45.46
86.67
61.15
20.86
10.13
23.48
18.39
-18.1
-14.03
37.8
36.14
-13.38
-19.3
-20.73
-30.15
19.9
40.45
8.87
1.61
-1.42
-57.29
-47.32
9.52
-19.11
-43.83
-12.02
-7.8
-50.3
-49.47
39.77
42.67
-25.83
-3.59
31.51
12.26
16.63
44.59
38.37
13.46
0.77
-23.51
-86.17
-99.97
-58.5
-8.91
22.36
37.98
60.09
116.09
104.73
39.45
-6.67
-43.49
-104.56
-74.33
-40.74
-36.86
-1.43
30.97
-4.84
12.12
71.99
23.79
16.52
54.56
62.81
17.57
-51.77
-69.64
2.71
-29.63
-153.48
-155.86
-23.44
45
61.17
79.99
71.97
66.37
36.4
-40.77
-70.65
36.3
103.02
54.18
3.42
-26.7
53.86
90.74
34.71
-22.51
-46.84
-27.47
6.83
20.24
6.78
-28.44
-87.06
-88.15
-11.65
16.32
24.07
-23
-63.15
-79.57
-31.47
30.56
73.83
83.22
31.58
16.99
5.96
-45.36
-135.86
-128.12
55.28
113.75
79.46
112.98
88.23
-6.04
-64.92
-22.75
32.65
55.3
62.42
47
-26.42
-104.64
-59.48
1.18
6.24
10.1
1.14
-18.63
-41.62
4.37
37.27
68
69.08
31.08
-9.73
-49.68
-56.06
-40.66
-25.94
36.02
88.11
71.93
59.97
84.44
46.52
-19.92
-56.82
-80.15
-62.49
-2.53
17.24
1.61
-47.93
-95.93
-116.28
-119.53
-136.68
-61.83
66.7
93.74
94.29
80.48
42.74
44.87
50.31
-0.57
-87.96
-213.75
-291.48
-143.21
44.85
134.49
171.28
117.66
76.02
52.35
37.86
30.62
-1.71
-35.63
-29.35
12
-28.18
-72.27
-26.7
109.78
136.22
41.65
-40.23
-63.71
-49.64
-42.01
6.72
27.52
-9.91
2.47
24.66
60.86
60.97
42.39
25.32
9.74
-15.83
-22.48
-7.84
5.41
25.49
3.11
-9.89
-41.03
-81.51
-37.76
-15.74
-49.36
-71.03
-36.78
-2.14
44.91
58.26
34.87
13.63
-20.71
1.47
-1.3
-69.88
-94.83
-31.73
-0.01
68.93
96.76
39.09
6.81
-9.87
3.26
25.92
32.62
41.14
9.95
-37.31
-69.35
-69.69
-27.47
-0.34
-48.14
-109.44
-152.42
-99.67
84.53
138.12
80.11
38.89
25.79
46.58
25.96
17.65
16.4
13.04
2.19
-49.78
-70.81
-21.06
-40.89
-115.46
-88.71
1.06
7.1
6.52
72.22
98.22
83.2
60.9
28.32
17.54
13.64
19.28
-9.4
-13.79
37.91
18.56
4.11
36.89
53.56
83.57
69.64
21.23
-33.48
-67.04
-108.37
-130.61
-118.58
-56.53
0.32
22.91
31.04
48.73
57.06
19.36
-9.38
-21.24
-14.89
-36.33
-43.75
-74.34
-90.69
-44.03
-42.36
-37.17
50.06
135.04
115.94
60.24
41.24
24.3
46.52
98.12
45.7
-49.84
-86.68
-45.82
32.91
39.2
34.1
14.44
-6.56
-17.28
-24.14
-15.12
37.74
42.88
-27.63
-70.54
-109.43
-159.47
-175.78
-137.3
2.68
92.74
80.17
67.93
79.94
58.72
35
43.66
53.27
53.01
7.42
21.19
18.66
-44.09
-80.04
-62.75
2.1
-17.08
-64.49
-24.14
31.87
53.9
-47.7
-93.57
-20.82
39.1
37.19
9.12
-1.74
91.14
132.73
94.91
56.24
21.59
-7.18
-16.29
-14.45
-7.53
-9.14
-3.91
11.72
23.74
7.89
-16.09
-15.4
18.16
1.35
-15.46
5.01
23.27
45.27
-16.47
-39.68
-10.01
-61.97
-85.22
-41.89
-8.77
32.13
50.99
55.39
53.95
36.65
-27.62
-32.49
-4.79
5.83
-20.4
-44.07
33.88
69.7
8.5
5.36
29.98
12.23
17.1
3.32
-47.26
-98.6
-81.6
-27.28
17.71
18.42
-4.13
-38.9
-60.51
-34.77
5.24
4.12
2.98
-18.07
-26.16
29.6
71.18
21.84
-18.05
-20.01
-9.72
-24.6
-65.03
-65.85
-2.86
12.83
-56.45
-102.75
-47.31
43.65
128.3
90.54
16.25
-12.74
7.89
28.89
45.88
83.81
39.06
-93.36
-159.28
-71.68
28.75
31.06
32.44
41.56
61.57
54.17
20.53
28.81
64.19
33.31
-18.83
-4.62
49.82
78.93
46.86
-10.63
-50.34
-68.25
-65.95
-59.9
15.77
54.44
-31.27
-75.86
-57.26
15.67
34.39
15.73
3.5
-16.69
-13.81
15.53
1.31
-0.3
23.22
8.07
-27.49
-67.74
-59.47
-14.55
37.51
51.83
26.44
-10.98
-18.08
-1.68
-10.93
-12.38
-75.56
-71.32
-9.15
-30.32
-85.21
-90.35
25.54
125.48
120.21
81.94
81.04
79.74
81.75
58.89
-25.08
-91.93
-69.9
-39.12
-20.01
-51.23
-20.49
14.51
-15.6
-10.59
32.94
16.81
6.3
28.01
43.71
25.77
8.17
-12.32
-30.32
-39.41
-41.18
-21.01
24.8
29.94
-23.16
-53.77
-48.15
-47.63
10.97
99.57
90.65
43.38
23.53
11.02
-5.21
-35.01
-63.81
-73.36
-38.64
1.58
75.83
94.79
32.11
0.6
-36.65
-83.34
-79.5
-50.9
-80.2
-122.73
-98.15
55.65
114.35
93.47
64.66
66.96
63.72
28.48
7.78
4.78
-17.75
-63.4
-86.83
-79.64
-33.98
-11.43
15.27
21.39
-41.59
-32.13
19.43
33.88
40.09
73.63
50.33
14.17
34.16
44.95
42.22
30.52
8.32
-32.57
-49.14
-21.54
19.38
18.29
-18.91
-39.27
-34.92
-18.73
53.74
63.59
35.44
51.51
29.82
-11.17
-63.86
-116.65
-28.35
86.44
72.05
-22.52
-66.78
-83.6
-77.55
-30
-27.42
-41.79
-31.58
11.95
18.04
7.67
-7.2
-25.32
-39.09
-14.75
32.98
67.32
69.85
46.35
34.58
21.04
23.85
29.01
31.38
2.9
-59.47
-95.6
-113.36
-78.32
-16.9
22.96
60.09
69.41
39.23
26.36
14.31
23.76
83.44
39.43
-25.68
-24.86
14.71
59.67
81.04
22.53
-19.72
7.52
-4.97
-34.47
-12.7
26.47
68.59
60.95
-9.85
-105.13
-99.49
-57.98
-34.11
-10.17
18.88
41.36
29.58
-38.29
-127.18
-145.95
-46.66
19.17
41.71
57.44
77.89
68.68
18.55
-25.33
-16.2
36.18
38.1
-59.98
-120.03
-122.18
-51.9
6.89
51.34
63.27
89.5
62.5
28.73
13.42
-10.67
-0.88
26.66
23.34
-16.9
-42.21
-47.09
-48.54
-13.08
16.85
5.43
-23.48
9.8
42.93
24.85
-23.18
-46.92
-89.34
-134.2
-120.46
-54.25
15.62
54.07
97.41
148.94
107.8
33.06
16.01
18.91
22.71
32.08
27.71
-8.9
-14.82
-13.04
-21.49
-18.08
22.54
43.91
27.52
-14.03
-59.84
-57.67
-18.82
-62.77
-88.72
-3.5
14.87
17.42
57.98
42.06
17.15
37.04
53.24
42.44
41.34
35.25
-3.17
-25.66
-2.68
20.96
-7.93
-38.8
-78.75
-81.75
0.58
50.4
7.31
-59.22
-164.75
-286.4
-208.35
23
116.37
32.74
-21.93
38.42
96.31
64.97
-5.79
-61.74
37.49
90.13
51.33
3.88
1.32
39.23
76.52
76.22
63.16
36.61
-7.61
-31.87
-40.1
-48.98
-31.93
21.11
30.24
15.39
37.96
64.88
31.83
-8.74
-61.74
-25.77
-15.97
1.7
15.77
28.92
21.96
30.52
41.28
28.26
-64.71
-143.22
-57.41
8.67
6.67
53.4
78.6
53.85
11.08
-44.97
-59.08
-54.35
-67.83
-70.15
-33.27
-3.04
39.47
11.83
2.2
52.61
93.78
65.68
27.24
25.52
32.29
21.14
-17.74
-48.05
-40.48
-27.45
-39.52
-17.57
-15.13
-30.53
-39.15
-45.15
-89.51
-108.09
-67.18
-35.67
-4.28
48.51
66.22
80.7
63.03
37.51
16.72
5.23
29.3
11.14
-69.95
-80.71
-44.07
-29.34
30.6
91.04
77.42
49.64
53.06
41.48
-22.6
-53.66
-3.88
54.19
63.73
59.06
28.36
-7.46
-57.53
-146.64
-101.9
44.1
69.97
27.2
20.23
25.09
43.06
32.53
12.53
-3.57
-6.13
16.3
4.27
0.22
-26.97
-84.86
-106.78
-8.13
62.15
-13.57
-109.45
-137.17
-146.85
-111.21
-8.17
47.45
57.12
91.68
112.81
90.51
45.66
-19.02
-81.88
-88.63
-27.16
6.59
26.64
74.62
72.4
72.19
75.7
38.74
23.02
88.82
99.55
22.42
-55.26
-86.61
-33.73
20.25
40.71
30.19
-5.21
-53
-51.97
-15.32
9.7
34.78
19.31
-9.87
-50.74
-108.79
-176.39
-135.62
-22.81
79.14
95.37
54.01
-4.43
-66.68
-63.06
11.62
54.83
58.5
62.32
44.9
32.27
35.02
18.8
21.66
35.04
-11.87
-54.72
-86.83
-109.7
-54.22
33.27
39.85
13.04
-18.06
-24.83
-53.25
-124.65
-46.83
60.81
103.6
65.22
21.57
3.57
-14.96
-88.24
-125.56
-84.68
21.05
81.75
84.71
71.25
26.06
-29.83
-58.21
-26.36
39.4
64.8
71.58
76.18
53.03
-18.77
-54.85
-81.82
-64.81
11.36
39.66
4.36
-17.29
-14.78
-23.05
0.19
46.25
35.01
22.34
4.17
39.87
48.48
-28.35
-45.47
39.16
33.37
-53
-77.86
-79.56
-93.77
-79.67
-54.48
-0.83
53.53
59.53
41.42
39.75
32.7
45.73
29.92
3.88
-19.79
-24.34
-36.42
-32.5
-26.99
-35.38
23.75
37.09
26.55
-35.74
-98.28
-85.95
2.91
58.39
84.41
78.61
94.82
78.94
21.75
-64.46
-142.38
-65.77
53.07
71.77
43.46
41.27
50.38
45.73
23.11
-29.11
-102.62
-144.74
-67.3
-9.85
11.82
-19.68
-40.63
2.21
46.23
55.72
40.52
19.21
-14.02
-35.7
-23.72
-23.95
-42.49
-47.71
44.97
107.97
57.48
-17.15
-37.2
-20.72
-68.37
-111.06
-72.19
-8.1
62.34
107.82
92.28
66.81
63.22
45.26
22.83
8.25
-16.09
-1.96
13.08
-1.43
-63.84
-119.86
-142.84
-136.82
-84.73
-5.09
11.75
-21.08
28.99
85.95
93.48
81.69
59.9
9.36
-40.45
-59.3
-69.31
-61.41
-19.75
55.1
84.76
38.44
-2.28
45.59
76.4
50.24
31.02
-0.85
-39.99
-120.9
-138
-36.09
44.99
56.42
56.18
56.64
58.46
39.74
-9.96
-62.8
-71.91
-53.91
-55.16
7.58
62.47
56.69
47.3
33.27
4.55
-0.82
16.3
16.44
27.02
-4.8
-42.19
-16.77
39.3
52.94
18.12
-33.31
-66.71
-53.96
-12.95
27.95
27
3.33
-18.68
-29.91
-43.73
-50.18
-47.3
-29.68
-26.33
28.7
60.78
52.9
-5.61
-52.89
-91.52
-19.89
-7.23
-57.47
-37.59
5
12.95
62.66
72.69
52.5
27.3
2.04
-20.13
2.65
46.28
57.05
34.43
-9.43
-41.43
-35.32
-9.6
-32.57
-53.85
-29.5
25.19
20.58
21.32
48.24
30.04
4.39
-0.64
-3.71
-14.32
-41.63
-117.36
-94.06
-11.6
74.04
59.81
29
33.13
14.62
15.66
15.21
23.36
20.37
13.29
-0.22
-47.27
-74.77
-87.84
-74.98
-54.43
-39.81
13.87
123.18
142.89
75.5
25.92
18.95
25.7
25.51
41.15
38.41
0.81
-10.1
-31.31
-95.88
-177.47
-126.61
39.99
107.84
81.74
25.1
37.54
65.32
64.71
24.34
-26.35
-54.06
-30.66
0.17
-1.28
-25.2
-31.3
-16.63
-23.12
-65.58
-124.9
-129.3
-66.79
6.89
35.59
33.41
34.75
35.53
27.01
20.13
33.99
36.52
47.61
60.89
70.01
37.18
-13.62
-32.68
-33.49
-21.36
-14.92
-39.09
-111.36
-139.85
-83.72
27.84
122.81
114.54
59.43
-7.36
-30.57
-16.13
5.35
10.97
12.45
-23.08
-80.57
-66.7
-55.45
-44.11
-16.33
-17.83
-28.82
-48.08
-13.17
85.05
101.08
74.62
24.26
-12.56
4.66
51.82
73.68
71.93
41.46
19.26
10.29
8.5
-19.78
-60.3
-121.79
-166.6
-171.03
-87.79
75.49
131.33
70.09
44.95
50.45
24.87
27.57
16.89
20.62
8.88
-46.71
-103.56
-103.52
-55.16
-13.87
53.88
89.09
98
94.8
82.99
67.72
60.01
17.39
-2.82
-34.4
-43.79
-23.33
-5.26
15.8
22.65
-0.38
-18.36
-47.27
-105.73
-141.75
-121.27
-81.58
-75.97
-60.78
-8.94
19.34
52.35
65.57
45.09
25.44
22.2
24.26
43.47
85.45
69.19
65.48
75.59
49.06
-16.51
-70.45
-94.77
-45.83
-15.1
-42.57
-46.33
-3.73
16.98
34.42
58.03
62.35
49.82
16.51
18.32
-28.09
-65.63
-74.53
-70.84
-28.96
17.43
48.48
34.31
1.63
16.53
24.85
-23.49
-79.07
-72.12
-67.87
-79.99
-46.09
-98.54
-162.8
-104.48
-19.22
32.41
127.06
191.09
153.31
132.09
85.29
40.59
23.88
-10.06
-8.41
21.15
-10.15
-57.19
-66.27
-11.16
11.36
1.21
12.31
34.18
27.98
26.75
12.97
20.97
42.34
26.48
-14.46
-34.67
-42.21
-31.72
-28.16
16.03
97.2
144.14
58.05
-54.6
-52.47
-9.61
12.27
12.05
21.14
23.11
-16.89
-65.68
-65.86
-86.68
-140.03
-93.9
-19.7
51.59
70.25
72.87
48.63
41.06
30.22
16.08
-1.3
-18.61
-22.32
0.77
21.23
17.73
-9.96
-47.07
-33.06
-16.24
-10.08
-14.65
-52.7
-93.99
-86.98
-15.58
-16.48
-65.19
-12.44
76.3
73.08
64.62
59.18
54.92
62.27
44.34
16.45
3.62
-55.42
-139.41
-111.06
-41.12
14.08
45.26
13.19
6.65
37.24
40.57
5.33
-45.64
-35.58
-20.03
-13.23
-42.17
-47.4
-5.2
-1.62
24.35
4.79
-7.25
-18.63
-46.68
-63.71
-46.33
9.96
56.35
67.09
76.8
87.16
59.07
50.02
61.46
49.85
29.84
18.38
15.27
-4.13
-35.17
-54.26
-31.83
-20.58
-5.57
-29.76
-52.33
-13.14
9.88
-1.13
-29.82
-52.9
-119.59
-121.54
-1.57
83.9
77.9
35.04
39.32
45.13
35.89
-10.12
-7.7
84.65
75.87
-7.61
-56.94
-84.03
-71.68
-40.83
-54.98
-79.77
-64.47
-36.08
9.06
65.17
56.28
7.13
27.47
34.24
-30.79
-25.21
29.06
42.58
39.55
-11.04
-68.95
-50.9
-7
1.98
-23.87
-37.06
-11.8
-18.29
-41.68
-38.97
-29.25
4.28
15.85
14.25
-8.84
-32.24
20.33
19.63
20.61
59.66
94.76
52.84
18.87
44.18
68.11
54.56
3.37
-14.28
-11.01
-31.3
-78.76
-61.26
-23.05
3.33
-18.31
-38.13
-17.96
7.85
-56.67
-85.04
5.58
96.11
88.36
56.95
50.39
41.96
-5.77
-18.24
-14.5
9.79
14.6
19.84
0.59
12.04
18.16
-51.12
-74.87
-27.96
-78.95
-148.87
-105.88
-25.48
14.07
14.59
-20.52
-61.89
-18.78
-30.16
18.5
37.72
9.42
25.86
80.65
49.04
22.38
31.09
39.8
65.84
23.86
-88.73
-167.5
-101.84
14.04
95.57
113.98
67.9
55.68
55.3
49.06
46.47
25.59
-31.29
-76.07
-72.28
-52.29
-8.44
1.95
-4.4
29.54
61.18
68.11
82.05
75.13
50.3
19.1
-65.95
-146.84
-114.78
-26.42
-40.09
-2.56
38.59
5.07
-37.65
-55.26
-76.65
-27.31
24.25
59.32
55.54
32.93
22.15
22.72
30.38
-9.57
-53.67
-55.07
-40.76
-5.96
-4.81
-80.97
-93.48
-54.98
-19.14
16.48
16.62
-13.68
10.01
59.6
94.37
86.6
78.38
54.59
42.48
17.73
-45.1
-111.57
-40.12
90.6
33.81
-81.42
-96.53
-61.55
-6.08
12.22
10.7
49.73
80.35
84.25
73.09
58.28
19.65
-32.3
-60.59
-38.64
-6.2
8.01
1.68
6.8
-5.5
-15.34
-32.2
-36.65
-24.54
-49.96
-54.24
-57.93
6.31
76.53
90.1
90.43
59.96
-1.19
-35.2
-41.93
-33.84
-56.98
-62.57
-80.28
-86.51
-74.23
3.46
35.09
23.53
-5.55
-31.23
-25.85
-23.6
-68.22
-102.22
-63.48
-3.16
55.33
114.48
131.12
98.36
80.07
48.57
13.93
-10.36
-41.31
-14.79
50.47
49.09
40.36
39.81
14.19
-11.26
-36.11
-60.84
-76.84
-68.93
-20.94
-28.6
-64.55
2.68
85.27
77.4
37.8
12.14
-16.57
-16.61
-20.86
-44.94
-63.73
-66.53
-0.52
57.49
14.88
-36.67
-48.43
39.92
118.72
91.81
71.43
45.12
10.43
3.6
12.13
15.58
-10.01
-33.83
-23.19
-16.44
-1.51
21.86
41.86
-31.43
-162.64
-172.11
-27.83
79.7
60.74
16.44
-9.55
4.41
25.27
36.23
37.92
0.56
-37.65
-45.61
-29.22
-50.56
-65.13
-88.62
-130.8
-135.48
-33.43
55.96
96.98
65.93
4.07
-34.12
-23.35
20.82
31.37
34.45
68.11
87.75
104.57
69.65
15.66
-29.22
-39.12
-37.2
-1.05
40.7
18.21
52.31
100.99
56.52
5.37
18.27
12.06
-11.46
-31.56
-66.24
-79.51
-81.55
-71.75
-55.46
-83.51
-95.06
-49.95
-41.18
-50.73
-38.7
17.24
65.32
86
53.07
27.46
-16.19
-4.28
10.85
10.68
12.84
-23.73
-37.61
14.73
73.46
60.48
0.57
-21.14
-7.09
9.58
12.76
0.37
-18.02
-54.72
-12.01
72.66
98.27
62.28
-1.82
-48.14
-82.46
-24.43
46.66
45.59
-19.3
-90.3
-96.22
-28.83
14.28
-11.81
-2.57
44.97
69.71
83.76
85.41
60.58
69.84
63.94
31.49
-2.11
-22.59
-16.03
-28.13
-37.3
-50
-61.82
-30.17
-16.56
-62.33
-85.11
-86.46
-55.1
1.28
40.12
20.17
-1
-29.24
-69.9
-73.48
-84.19
-127.69
-88.95
10.75
131.32
146.91
95.98
78.44
68.18
34.7
-9.92
-50.83
-69.04
-82.26
-46.68
-5.98
49.16
85.43
95.39
93.56
20.2
-39.66
-16.47
60.55
50.37
3.02
-25.14
-47.97
-59.84
-32.88
6.39
-25.3
-95.45
-68.24
35.44
43.74
13.11
-23.66
-21.22
-34.11
-24.08
25.27
44.05
44.06
10.11
10.52
19.91
-35.32
-73.23
-70.68
-5.86
8.79
-28.42
-47.8
-4.19
71.19
101.52
63.52
31
24.63
51.72
21.55
-64.27
-95.68
-61.87
-2.59
14.79
-2.67
-6.07
-0.22
-14.63
-36
-56.39
-17.15
28.64
37.26
28.38
38.4
43.21
68.05
57.08
27.8
-7.09
-58.28
-79.19
-62.34
-112.25
-169.4
-44.82
-9.3
-33.11
16.41
73.91
86.78
48.3
22.24
-3.3
6.7
33.47
35.93
30.02
35.13
38.91
29.95
31.42
34.68
-10.05
-52.9
-52.13
-52.39
-61.91
-44.05
12.49
32.96
57.18
63.85
65.12
41.64
4.17
6.08
9.22
-43.72
-179.08
-138.64
43.44
113.5
81.73
18.43
0.99
-16.2
5.2
53.95
45.63
22.23
18.3
-2.44
-64.57
-70.01
-3.62
21.67
24.12
26.4
15.7
-2.91
-16.53
-44.57
-105.33
-113.39
-113.03
-74.65
9.25
56.41
58.75
14.54
-33.97
-5.07
-27.12
-85.19
-96.37
-64.87
-17.08
19.67
61.01
39.68
26.95
85.8
109.21
105.49
89.05
57.82
37.24
-18.56
-87.74
-94.27
-52.53
-14.71
-50.82
-74.68
-32.42
19.68
90.39
71.98
8.33
-18.11
12.91
27.11
6.6
-14.08
-14.44
-8.6
21.89
32.68
-4.95
-45.21
-66.14
-22.57
10.25
21.49
12.3
10.82
-0.99
-6.48
-15.8
-21.31
-31.44
-47.35
-1.25
14.03
-29.89
-60.28
-15.66
9.97
6.21
13.11
-0.1
-24.27
-54.27
-77.34
-54.21
-24.72
8.81
11.75
16.03
58.5
95.77
71.18
39.81
12.77
11.59
-32.49
10.98
44.88
29.71
19.09
11.58
7.28
-2.44
2.87
9.93
-4.33
-8.84
-28.66
-47.1
-33.37
-14.06
3
12.78
-8.61
7.57
67.87
75.35
6.49
-81.77
-81.5
-49.39
-28.51
-66.66
-79.93
-25.32
-17.42
-2.43
39.87
60.88
38.71
23.3
24.77
5.44
5.68
15.96
-2.59
-61
-108.07
-86.7
-83.65
-32.43
67.58
91.49
81.82
71.25
71.94
69.63
65.68
61.47
56.16
32.24
-2.15
-17.05
-13.65
-4.06
-34.94
-87.54
-74.47
-50.88
-65.77
-37.44
-1.64
10.56
27.27
3
-45.63
-98.65
-54.91
23.27
38.12
32.02
9.07
29.32
60.65
70.32
62.72
33.53
-19.39
-30.98
-15.02
-6.34
-9.51
-20.01
-15.81
5.81
12.19
-10.13
-76.15
-108.25
-64.64
15.91
94.65
93.81
36.06
0.17
-13.93
-21.67
-47.81
-30.31
1.81
-5.82
6.53
-10.41
-31.88
-15
22.05
31.65
28.18
37.3
56.97
52.9
-10.14
-40.97
0.18
3.95
-55.38
-30.61
75.46
30.5
-74.35
-167.05
-143.87
-7.2
71.54
58.9
64.49
61.35
40.25
15.66
-48.81
-88.62
-34.62
-25.84
-43.5
2.92
95.4
119.03
85.61
58.21
50.64
64.84
42.7
22.47
2.2
-31.87
-82.36
-95.86
-42.74
18.65
50.26
12.18
-31.32
-50.58
-26.85
-7.27
4.79
14.53
64.79
70.17
22.31
-54.63
-103.5
-113.37
-96.88
-40.08
39.47
56.92
43.3
23.91
-2.54
-15.03
8.63
-0.36
-26.03
-9.98
5.36
24.15
30.97
16.63
6.67
10.93
2.25
-28.52
-56.39
-59.18
1.82
18.92
1.74
12.25
4.81
-14.24
14.49
24.84
5.26
-37.2
-131.9
-116.95
34.98
76.78
31.13
11.7
19.16
32.35
36.17
8.31
-52.93
-102.77
-105.06
-66.58
4.19
61.37
44.38
12.72
11.48
3.49
-91.73
-189.19
-130.61
-56.17
17.29
133.91
142.67
66.72
28.48
30.28
29.81
32.72
26.17
19.08
-4.81
-24.2
-5.55
4.71
-5.18
-33.16
-25.28
15.74
47.34
30.19
14.09
13.26
14.12
5.2
11.16
5.97
8.62
24.09
-8.11
-1.52
20.98
21.29
17.06
-4.23
-38.86
-53.75
5.44
40.22
-17.86
-100.36
-127.96
-55.53
21.89
56.63
48.01
38.28
23.63
-11.38
-60.65
-81.81
-15.33
36.42
-32.18
-106.66
-79.51
-24.93
-0.68
46.1
57.88
64.6
60.58
34.79
17.37
13.35
5.17
11.17
25.74
34.81
40.93
-6.93
-43.46
-18.5
-1.72
-32.51
-78.83
-76.75
-48.38
-5.14
16.42
6.47
38.83
54.14
31.27
-30.69
-62.28
-65.64
-61.99
-46.56
-30.15
-24.82
-4.79
-13.27
-21.45
-3.32
97.68
148.05
111.83
59.78
3.47
-76.63
-143.37
-67.36
32.49
89.04
61.59
15.12
-29.26
-22.04
10.51
23.53
-1.92
-24.53
-47.27
-42.2
-12.6
-24.05
-22.89
8.2
17.55
-38.15
-57.11
-12.3
35.45
39.38
41.91
34.72
-3.05
-5.3
-6.63
-9.53
-9.91
-8.19
-5.26
-1.52
2.16
4.46
4.9
4.51
7.8
12.83
14.66
12.52
9.02
6.8
2.51
-1.66
-3.91
-4.99
-7.86
-8.54
-11.16
-10.65
-7.77
-5.14
-4.02
1.45
4.62
4.2
6.67
9.79
12.52
13.02
12.9
7.16
4.63
1.99
0.35
-2.76
-8.89
-12.86
-14.05
-14.23
-12.08
-8.94
-6.32
-0.62
1.65
4.27
6.83
8.92
10.23
11.69
9.82
7.96
6.42
1.8
-1.83
-4.31
-5.74
-8.75
-10.23
-12.04
-9.95
-6.23
-4.37
-1.26
0.99
3.23
6.23
9.67
10.27
11.14
11.14
10.31
7.28
4.97
-0.45
-4.88
-5.8
-5.84
-9.47
-15.23
-14.43
-11.25
-7.72
-1.67
1.49
2.86
3.46
5.12
10.24
12.56
12.88
14.36
8.27
3.71
1.27
-1.02
-4.63
-6.85
-8.58
-11.49
-10.58
-10.93
-9.7
-8.62
-6.61
-2.24
0.5
2.67
9.18
11.55
12.54
11.1
8.46
5.05
0.93
-0.12
-2.6
-5.71
-8.23
-12.19
-10.88
-8.12
-9.17
-5.25
-2.47
-0.31
0.08
3.31
4.72
9.47
12.03
12.96
14.01
8.81
5.21
3.33
-2.3
-4.94
-7.52
-9.92
-10.19
-14.04
-13.51
-11.98
-9.54
-5.24
-1.1
5
7.37
8.64
11.72
11.85
10.84
10.49
9.95
5.61
1.48
-1.64
-3.71
-7.81
-11
-11.37
-11.4
-9.01
-7.61
-4.63
0.54
3.69
5.65
8.71
9.23
11.46
13.15
11.85
7.08
3.69
-0.56
-4.48
-8.06
-9.97
-11.73
-12.44
-13.27
-11.48
-8.67
-4.91
-5.72
-0.07
6.38
7.46
6.79
9.45
12.09
8.78
9.17
7.2
2.77
-0.59
-2.65
-4.53
-8.12
-9.73
-11.34
-10.68
-9.08
-7.15
-2.99
0.04
4.73
4.75
6.12
9.13
10.94
11.12
11.5
6.74
3.27
1.2
-1.45
-1.73
-5.04
-6.3
-11.94
-10.57
-10.91
-10.94
-5.52
-1.45
0.8
7.02
7.41
7.89
8.21
8.33
10.04
11.33
7.82
4.47
0.69
-1.94
-4.17
-5.38
-7.42
-8.82
-8.51
-9.68
-7.85
-4.04
0.76
4.39
5.32
5.44
10.02
13.33
13.03
14.63
10.43
5.26
1.46
0.19
-3.97
-6.8
-9.09
-12.91
-11.26
-8.8
-7.78
-7.21
-3.92
0.42
3.45
5.38
7.01
10.51
10.28
9.57
7.84
6.65
0.87
-2.43
-4.93
-8.42
-10.04
-9.16
-10.48
-9.93
-8.19
-7.89
-6.41
-0.16
5.8
6.37
6.63
10.32
11.99
10.51
12.16
8.87
4.92
0.43
-5.07
-7
-10.68
-12.72
-14.22
-12.37
-9.25
-5.7
-5.04
-3.46
0.6
5.58
7.49
5.72
10.21
9.33
9.56
7.94
5.12
3.82
1.07
-3.63
-9.12
-11.13
-13.13
-12.21
-15.15
-13.85
-11.27
-6.21
-2.72
1.36
5.14
7.41
12.89
13.95
13.29
11.18
7.64
3.57
-1.58
-4.88
-6.31
-7.85
-9.78
-11.52
-11.58
-10.57
-7.38
-4.2
-1.62
1.21
4.04
4.64
5.57
7.31
9.5
9.98
10.12
6.6
-0.31
0.18
-3.34
-5.39
-7.88
-10.61
-11.13
-11.81
-9.19
-4.42
0.43
2.94
6.13
7.95
7.83
4.56
5.94
8.52
6.86
8.8
7.57
4.36
1.98
-0.3
-5.41
-8.81
-18.2
-25.6
-26.81
-26.17
-14.43
-7.51
1.67
6.26
3.9
-2.74
-0.73
8.2
12.83
15.73
15.31
10.81
-4.36
-12.91
-21.93
-43.91
-51.61
-53.65
-27.59
0.54
8.55
5.96
-12.22
-26.62
-21.04
1.71
8.77
17.03
18.76
18.3
28.06
23.05
2.18
-0.6
-0.95
-18.43
-33.06
-31.37
-18.12
-2.09
11.86
7.62
-20.76
-55.71
-78.76
-44.31
-17.35
4.29
38.07
51.74
43.23
36.4
31.43
4.28
-25.6
-21.38
-9.3
-7.96
-25.49
-21.25
3.43
14.41
-6.05
-13.33
-9.41
4.35
35.32
52.86
38.75
25.38
13.61
-7.78
-28.13
-38.69
-21.44
9.69
7.96
-6.57
-8.54
-7.09
8.66
27.17
28.28
21.51
17.66
11.64
16.68
23.01
24.9
20.09
2.29
-8.7
10.92
12.3
1.02
17.23
26.16
20.28
11.77
4.21
-22.77
-50.19
-38.25
-10.32
-5.55
-15.45
-7.98
5.57
3.93
-3.54
-7.9
-5.9
4.67
15.98
15.96
1.67
-10.28
-6.23
-2.24
-36.35
-92.81
-121.31
-116.66
-68.63
-30.26
13.09
57.62
70.74
71.49
72.87
45.71
-20.22
-21.38
12.65
8.02
-1.37
17.57
33.42
23.7
6.73
14.01
-4.19
-15.2
-10.58
-9.14
-58.03
-80.9
-34.04
30.15
72.13
61.92
51.05
48.29
3.84
-6.78
27.24
47.14
56.33
50.5
34.87
-1.24
-37.43
-62.6
-106.59
-107.51
-46.02
47.42
79.43
88.97
63.43
21.41
11.99
24.21
35.08
39.46
21.67
-1.88
-14.64
-19.76
-8.79
-4.94
-2.74
-6.4
-15.07
2.34
17.12
7.53
-1.58
8.52
38.65
52.64
45.4
19.71
-4.26
-17.27
1.34
19.91
12.75
0.76
23.51
18.98
-15.69
-5.91
12.42
-4.22
3.98
35.18
42.73
26.24
-2.36
-16.32
-7.93
16.54
31.55
50.65
48.3
22.71
24.54
30.8
26.64
32.56
51.31
39.02
11.25
34.8
96.83
143.77
166.06
140.27
105.27
78.69
74.58
71.52
60.56
45
45.81
49
47.37
47.53
16.55
-9.82
-9.69
-9.27
-15.81
-26.38
-24.19
-10.5
-22.9
-48.26
-71.42
-73.15
-78.21
-73.73
-58.83
-31.29
-30.22
-28.08
-21.28
-4.07
14.22
38.56
38.21
8.77
-19.35
-61.47
-74.9
-67.54
-6.74
45.11
51.55
30.16
-2.09
-17.17
-20.15
-3.85
-11.58
-24.21
-64.23
-80.38
-47.75
-7.58
-15.38
-79.27
-88.66
-34.47
-13.82
-9.42
-17.31
-33.16
-32
0.11
-0.44
-11.72
-7.59
10.63
22.14
16.57
2.34
-7.17
-4.19
-12
-17.26
-35.44
-69.3
-84.99
-48.03
-20.93
-22.5
-34.96
-24.41
12.43
26.7
-2.39
-34.19
-48.76
-20.97
-28.21
-62.33
-53.63
-8.02
4.67
11.2
-0.33
-31.38
-36.13
-30.17
-20.77
-28.96
-15.21
24.3
38.71
38.58
56.94
55.71
12.29
-39.88
-66.46
-65.09
-52
-42.3
-37.49
-25.15
-30.86
-24.81
-53.61
-89.38
-58.5
0.41
12.58
5.14
-6.01
-13.91
13.5
25.84
27.99
7.5
-34.41
-39.41
-0.24
12.2
2.56
-7.44
-13.54
-15.56
-8.64
-9.41
-19
-19.53
4.4
9.43
-9.39
-29.19
-19.46
3.67
24.51
-1.92
-27.1
-65.83
-73.73
-48.91
-39.5
5.89
22.17
5.77
13.4
41.37
34.23
5.29
-3.84
6.78
24.2
36.23
66.75
68.14
45.09
15.75
-15.12
-36.66
-30.82
-43.28
-36.78
-3.7
16.77
11.83
18.38
28.34
32.66
37.25
16.26
-36.38
-43.01
-39.66
-39.09
-43.28
-61.16
-34.13
-0.85
21.25
8.94
-31.25
-49.36
14.98
59.31
26.65
-20.8
-3.82
40.81
39.54
-4.47
-34.62
-38.74
-35.3
-42.94
-47.67
2.98
23.81
26.16
34.49
37.8
59.76
36.04
-9.86
-25.83
-27.77
-34.64
-39.11
-51.48
-45.87
-19.29
-1.2
-15.1
-16.29
-4.55
1.15
12.01
-6.57
-68.08
-77.54
-64.52
-14.66
25.08
27.41
20.18
13.13
-14.19
-23.12
-15.92
9.24
26.67
45.14
27.47
11.35
1.64
-8.08
-11.51
31.42
42.68
39.76
30.31
-13.73
-61.89
-41.33
-21.1
1.83
5.39
14.6
29.69
45.84
39.67
10.2
-17.6
-27.98
-13.31
-20.59
-35.63
-32.5
18.54
39.95
5.33
11.81
25.7
19.74
22.05
8.71
3.76
12.76
30.14
5.66
-27.71
-35.66
-30.29
-21.76
14.53
42.89
49.2
39.08
17.11
5.87
9.14
27.61
33.73
18.28
-24.46
-67.57
-60.69
-20.72
24.74
16.33
-6.27
-39.3
-30.55
-20.87
-18.01
-7.36
-9.03
-33.48
-8.36
7.46
-23.8
-44.83
-20.43
22.47
65.65
42.79
-34.03
-77.69
-47.78
-17.33
-6.41
-16.09
-71.96
-21.64
38.43
34.63
33.72
14.27
1.8
13.11
0.82
-8.93
1.18
6.24
11.83
9.6
10.58
-12.49
-39.64
-26.01
-17.77
-32.37
-30.34
-31.86
-15.21
7.12
2.12
5.25
53.7
80.21
62.77
48.49
26.49
-3.37
-28.05
-32.68
-1.1
13.37
-14.82
8.65
38.64
16.83
-12.02
-13.38
-14.71
-35.37
-31.66
-13.97
13.98
7.02
0.45
-1.08
5.67
5.09
6.21
5.41
2.08
-3.38
-0.92
-7.78
12.51
29
40.64
24
-26.32
-67.09
-58.7
-14.27
-12.18
-26.04
-4.01
26.06
55.15
70.84
52.66
33.28
25.25
-0.08
-58.21
-84.37
-91
-83.12
-72.04
-30.69
23.77
38.47
38.27
31.4
16.03
-2.08
0.07
13.43
11.13
14.07
26.5
32.32
17.25
-6.59
-18.34
-13.49
-13.31
-14.98
-2.91
9.05
16.71
-11.56
2.09
4.37
-47.48
-49.89
-50.68
-90.52
-43.6
29.07
94.02
93.49
49.19
22.22
20.62
37.09
37.04
24.28
12.57
-9.93
-14.81
-18.78
-17.8
-14.99
-13.83
-37.5
-72.08
-95.99
-70.92
-6.1
67.97
70.34
41.88
25.66
20.64
39.02
45.22
20.99
-14.69
-47.9
-56.76
-38.36
-29.25
-9.71
8.52
18.45
7.36
-3.27
-2.79
-13.74
-1.55
10.83
35.64
32.38
-3.48
-9.76
-10.62
-21.8
-13.3
13.18
26.4
0.31
-19.23
11.53
12.73
-27.29
-36.31
-31.48
