11.17
12.76
14.54
13.05
15.69
16.4
7.41
1.55
0.69
-1
-7.25
-11.32
-18.33
-21.01
-15.3
-4.73
-4.08
-11.14
-13.99
5.47
11.73
11.98
12.55
10.44
8.7
6.62
0.97
-0.57
-1.21
-5.01
-5.31
-8.8
-5.3
0.66
-6.57
-9.04
-11.15
-8.24
-1.41
1.19
2.35
7.21
3.78
2.46
0.42
-0.74
8.33
14.47
14.23
4.55
-3.93
-10.89
-13.64
-12.64
-26.08
-30.81
4.21
11.6
-9.59
-6.43
-6.31
-16.53
-13.19
-5.55
-0.1
14.18
26.65
21.76
20.18
7.43
-13.29
-36.67
-22.54
0.04
7.9
6.77
0.7
-8
-1.77
9.14
-2.81
2.02
18.03
26.14
26.95
14.95
2.19
9.27
3.94
-16.11
-14.26
-8.9
-6.92
-11.14
-2.99
9.42
4.88
-4.98
-10.49
-1.84
10.21
3.28
-10.57
-8.09
0.83
1.63
-0.17
9.88
-2.77
-0.48
18.5
10.33
-11.13
-25.64
-16.6
7.39
10.93
-11.32
-25.76
-9.72
11.64
17.68
15.77
17.89
17.65
15.84
11.07
9.62
13.2
10.48
6.88
-8.51
-28.77
-42.6
-22.98
-15.52
-13.42
-5.2
7.5
13.45
5.51
7.06
7.98
-0.14
-7.56
2.92
9.92
11.18
13.13
12.4
22.78
14.97
-1.92
-5.46
4.63
1.69
-11.33
-19.83
-26.02
-25.13
-17.38
-9.08
-3.52
-5.73
-13.16
0.56
15.37
21.1
17.02
-7.06
-3.31
9.03
8.15
8.76
-6.85
-16.8
-13.62
-11.24
-17.77
-29.85
-31.96
-7.48
-0.66
-6.16
11.92
39.48
31.5
-10.23
-32.12
-37.77
-22.72
14.06
30.21
24.48
16.49
15.57
-10.07
-32.9
-38.89
-31.7
-15.51
19.69
5.32
-10.65
-10.1
16.57
49.2
34.94
29.51
18.98
8.48
2.73
-14.05
-14.17
-21.37
-27.4
-21.87
11.8
17.65
-8.26
-6.88
0.76
-17.48
-37.61
-48.13
-36.92
-17.56
-19.12
-2.58
5.58
-5.61
1.42
39.94
36.72
12.81
-0.37
18.61
40.07
36.61
10.35
-25.02
-51.12
-50.73
-28.18
12.57
48.56
42.4
-0.51
-40.11
-9.06
37.89
16.91
-2.2
13.14
13.36
-17.5
-46.16
-42.15
-60.13
-61.93
-37.05
-13.02
15.36
41.25
59.36
44.84
31.26
17.54
-37.86
-85.12
-49.74
-1.21
50.82
61.15
17
-47.19
-10.28
40.76
42.48
31.83
17.49
16.16
3.07
-31.06
-51.14
-14.99
9.04
-17.94
-4.73
14.77
-18.15
-39.04
24.46
28.99
-2.33
-50.35
-128.7
-73.29
22.59
40.18
34.22
28.42
19.2
6.74
-27.9
-48.28
-24.64
8.73
6.95
-33.25
-21.11
27.02
53.5
17.31
-32.9
4.65
-1.51
-42.44
-118.85
-159.85
-41.77
69.83
41.13
4.67
-1.41
-22.49
-45.24
-21.75
0.04
7.02
-72.93
-147.08
-150.64
-94.72
19.9
77.56
102.65
73.03
68.01
42.27
7.86
0.11
-3.95
-4.93
-18.23
-86.44
-128.59
-67.62
24.2
93.67
77.46
-20.06
-33.07
12.73
31.71
72.73
44.34
31.49
49.05
48.1
-26.2
-78.48
-31.16
70.14
52.8
22.76
22.79
-13.45
-38.45
-40.21
2.36
5.07
7.14
55.46
47.45
54.84
70.71
48.26
-10.13
-40.36
-35.45
-9.43
6.54
16.17
19.07
9.13
-29.04
-53.21
-39.27
9.53
24.44
27.4
14.17
0.58
-58.22
-56.09
8.61
74.63
98.02
19.81
-41.89
-61.11
-91.71
-93.52
-21.4
27.75
55.08
19.95
-62.57
-107.51
-64.97
-26.87
27.94
29.08
41.93
77.41
72.25
49.04
27.33
3.59
-17.39
-15.41
-46.34
-101.88
-81.8
-66.69
-92.78
-71.21
-17.81
-35.13
66.72
120.33
37.35
-50.69
-55.51
1.73
-8.57
-70.35
-23.15
54.33
73.83
71.04
47.98
22.29
39.49
12.7
-60.61
-97.8
-30.04
-3.4
3
5.63
35.2
80.37
73.43
68.3
40.82
-66.13
-167.39
-137.14
-15.43
65.73
46.57
26.22
-10.77
-64.19
-39.03
-4.95
-25.39
-23.85
34.59
31.64
47.26
19.59
-11.89
-18.89
-16.94
-109.99
-144.51
-39.24
73.14
99.6
12.55
-120.29
-117.84
-44.82
107.29
119.4
92.12
77.35
58.4
40.02
51.33
73.17
29.42
-37.16
-61.76
-35.45
34.35
47.71
-4.48
-45.33
-36.63
-33.74
-97.63
-90.78
-77.28
-76
-8.06
90.87
55.94
-0.59
-13.77
6.03
33.73
52.12
39.63
18.05
-11.7
-49.56
-54.9
33.9
67.45
-1.22
-81.91
-63.97
3.48
-16.59
-174.78
-290.1
-148.61
55.6
153.73
165.7
138.47
84.34
49.64
59.51
29.51
22.16
32.53
10.66
29.48
12.37
-38.45
-56.35
-7.4
20.23
8.86
39.37
25.08
-11.5
-54.84
-139.03
-99.52
-0.87
31.91
38.35
23.41
-27.44
-54.08
3.14
42.99
44.15
38.79
44.12
12.26
-36.81
-65.64
-17.96
1.6
-20.46
2.32
31.02
35.92
64.42
48.58
46.73
30.47
-14.93
-78.62
-74.02
-100.74
-95.88
23.12
56.25
29.69
28.47
53.52
15.55
8.78
-1.58
-16.93
4.75
43.29
26.87
-83.42
-135.02
8.65
107.9
73.6
45.26
28.51
21.72
17.62
-22.15
-79.13
-85.4
-34.05
-50.7
-82.13
-19.15
53.77
5.55
-7.78
-6.24
10.99
-33.47
-90.84
-112.08
-41.36
16.57
20
-23.29
-3.66
29.96
38.47
25.79
-26.79
-97.64
-56.74
56.7
70.75
57.91
16.48
-51.68
-33.13
27
59.79
77.18
37.25
2.12
-46.37
-28.17
-14.59
-48.76
-111.06
-109.49
-39.49
18.22
67.32
137.3
99.24
-4.28
-39.73
26.11
80.94
30.76
-13.68
7.44
26.74
-19.69
-32.81
-23.92
-68.08
-50.55
62.04
131.36
59.42
-11.89
-21.77
20.29
-20.79
-91.18
-66.74
-15.51
37.23
55.81
59.2
57.86
37.01
13.04
-48.6
-117.65
-147.8
-101.95
-74.53
-57.44
38.98
68.2
87.16
73.46
21.48
-11.19
10.71
9.53
-73.72
-74.66
17.17
8.45
49.56
130.87
42.81
11.04
40.62
87.41
67.65
0.67
-58.28
-77.24
-24
-69.09
-175.01
-57.64
29.64
11.91
-103.2
-97.02
55.34
123.07
92.02
20.58
-65.58
-119.86
-95.38
-15.98
106.73
135.74
93.62
42.19
20.19
5.26
-22
-77.01
-129.91
-114.1
-16.07
88.8
60.83
18.93
18.42
15.82
53.91
79.44
42.64
-27.06
-118.17
-143.43
-94.72
-36.39
31.15
31.04
50.31
59.22
-4.14
-32.85
2.64
34.33
37.65
43.24
63.97
47
10.16
-52.43
-110.31
-59.25
-26.18
20.65
50.32
24.9
19.47
45.9
-38.48
-160.79
-82.56
62.36
77.98
20.59
7.16
68.59
137.82
94.7
9.49
8.3
33.75
19.92
-15.47
-81.18
-106.36
-109.36
-57.77
23.74
65.57
-10.66
-60.8
-31.17
36.61
41.54
-18.45
-69.32
-52.39
-7.95
58.25
85.56
45.06
-21.31
-18.09
17.86
41.46
34.45
0.85
-56.4
-113.67
-114.96
-91.65
-32.17
-17.23
25.13
95.88
110.2
82.25
8.3
-73.89
-54.61
-15.09
-57.53
-64.61
-51.59
-7.53
66.23
72.56
71.57
48.93
6.33
-35.41
-50.44
-52.03
-28.62
27.56
66.71
54.3
32.27
10.79
-11.16
-37.69
-55.45
-81.89
-195.71
-178.03
-69.31
19.39
113.09
170.06
101.9
75.37
42.76
35.77
50.64
48.79
41.01
-11.57
-29.69
21.61
-28.77
-48.32
-13.85
0.38
17
37.08
29.12
28.54
14.3
-35.13
-69.09
-16.95
-13.28
-45.53
-26.21
-16.66
-17.31
-11.29
48.67
67.59
26.74
-33.72
-68.81
-36.39
-34.06
-44.69
44.35
113.13
80.83
-13.07
-82.89
-87.66
-51.18
-3.43
13.96
29.83
38.71
-10.91
-54.05
1.17
32.25
18.37
-57.64
-96.54
-32.18
-5.9
-81.89
-64.09
21.87
83.82
84.51
34.71
19.71
34.97
6.31
-80.08
-27.29
57.41
52.27
20.83
-46.84
-126.25
-30.14
117.5
103.67
87.3
53.68
14.38
-15.31
-48.66
-27.91
1.74
2.08
-35.23
-170.48
-286.7
-260.44
-42.74
159.96
184.99
167.05
118.84
68.05
39.7
33.04
19.09
35.25
78.49
72.25
18.98
-2.36
-5.91
-16.89
-45.8
-116.58
-186.1
-188.03
-132.29
-62.06
20.21
48.31
70.63
65.17
83.05
107.68
105.98
36.96
-24.16
-18.53
17.82
-15.63
-89.17
-81.85
-24.61
4.57
56.02
69.31
19.85
-26.02
-9.78
24.96
41.06
46.74
24.83
-15.68
-49.71
-68.96
-17.11
39.3
35.51
4.07
-45.41
-25.24
24.47
-27.81
-80.4
-102.2
-85.54
1.92
63.65
73.24
55.18
25.38
54.45
31.83
1.6
46.21
73.29
67.86
-11.14
-115.67
-122.5
-34.13
1.42
-44.95
-93.26
-36.48
17.43
70
17.09
-60.99
-55.21
-55.6
-56.67
-34.86
27.68
108.91
81.12
33.48
6.8
42.65
43.29
-4.71
-42.54
-78.84
-75.37
-148.39
-189.25
-45.21
106.49
110.26
40.98
-9.79
26.8
54.44
-1.47
-9.16
23.94
-6.66
26.17
94.99
54.28
-1.48
-18.15
3.49
16.9
8.71
3.09
-8.11
-3.48
-41.25
-49.16
34.87
26.04
0.83
-13.76
-82.27
-93.87
19.11
70.33
33.8
2.63
-7.48
-23.01
-28.09
-26.67
-12.38
-36.38
-60.2
-90.3
-79.58
-45.77
49.17
119.66
50.83
-10.19
-18.02
-14.79
-26.75
-7.65
30.79
30.59
-6.47
-49.14
12.36
54.12
31.27
19.74
38.4
35.21
-1.44
-14.06
-8.57
-9.61
-15.08
-33.05
-14.73
-24.87
-79.64
-56.27
-5.85
-74.72
-97.85
-21.47
-35.78
-8.93
45.89
98.48
16.01
-69.33
37.24
136.69
62.63
17.1
7.56
-0.13
-30.11
-66.22
-53.01
0.74
50.51
36.97
-35.47
-69.3
11.16
119.78
88.71
19.98
-33.99
-57.99
-76.91
-52.54
11.57
70.69
42.22
-35.81
-48.28
-5.58
40.62
59.27
45.98
33.61
-10.93
-67.3
-35.46
-12.59
-36.21
-54.17
-106.76
-146.36
-26.13
97.98
139.03
72.02
10.38
-3.97
-18.52
3.73
23.75
-4.91
-57.35
-63.71
0.08
20.55
-9.66
-38.15
-40.5
-53.65
-49.39
22.95
63.41
37.57
9.56
-2.94
-25.65
13.08
1.82
-71.57
-108.42
-176.17
-18.5
145.23
135.7
90.53
76.64
52.21
3.78
31.17
20.09
-101.62
-115.91
-28.14
52
52.21
9.16
-48.68
-42.05
14.01
22.28
37.17
68.55
95.01
31.82
-53.46
-107.47
-139.11
-34.21
56.98
51.17
0.03
-6.62
32.97
63.32
59.96
31.18
-17.08
-99.18
-151.15
-95.83
-4.25
19.54
19.9
-7.99
-3.27
-10.61
-34.82
11.4
35.38
28.31
46.79
6.62
-48.93
-79.14
-101.27
-20.71
57.55
14.85
-37.58
42.95
73.5
60.99
55.25
39.11
37.57
45.12
13.59
-36.82
-52.68
-16.23
38.1
48.73
68.65
40.23
-8.35
-79.71
-89.49
-81.23
-63.39
-101.48
-84.86
26.76
139.87
132.41
84.99
44.62
20.47
0.37
-4.47
-7.92
-36.11
-32.65
-19.7
-40.18
-60.59
-66.49
-55.24
-33.33
-27.34
15.65
70.02
12.89
-20.06
19.1
35.72
23.26
2.28
-17.37
-32.81
-19.27
26.68
13.45
-3.64
-42.34
-92.69
-71.21
-44.48
-74.8
-42.86
16.03
94.99
60.16
31.07
124.08
135.97
64.24
12.06
-92.23
-127
-31.25
61.12
78.3
37.18
1.77
-49.34
-31.42
-2.01
-19.79
-25.73
-29.52
7.64
53.51
14.79
-6.65
-17.14
-11.14
12.75
25.86
43.95
38.08
30.22
-0.62
-38
-69.16
-50.47
-38.74
-77.34
-122.67
-12.47
78.95
103.1
86.78
41.76
3.85
7.08
40.66
35.37
-9.73
-32.62
-33.24
-7.47
-1.91
-23.89
-88.5
-97.75
-33.88
2.53
-17.24
-23.1
7.75
49.13
81.73
54.89
18.54
7.63
14.39
33.38
51.53
49.79
11.54
1.47
0.77
0.2
-21.95
-46.44
-19.62
-21.02
-12.95
-6.62
-25.65
-91.37
-133.9
-30.85
67.69
36.56
12.68
21.57
45.48
36.03
57.8
65.47
23.42
-63.08
-60.55
-59.84
-57.63
-28.18
26.31
82.36
83.14
47.46
17.77
-5.25
-3.32
-10.37
-4.17
-21.02
-64.05
-38.29
11.25
-16.26
-115.84
-74.83
-9.16
57.99
6.51
-91.58
-96.1
34.59
86.09
73.38
81.16
93.6
78.21
56.54
26.84
-8.32
-15.92
8.98
-2.43
10.27
8.23
-31.26
-55.08
-22.88
26.58
28.57
11.95
-17.87
-42.55
-39.93
-9.88
44.14
66.66
33.73
22.31
-14.94
-55.1
-74.2
-31.4
69.67
87.36
38.91
30.35
43.07
28.31
-15.6
-57.39
-68.89
-123.35
-171.49
-152.73
-68.27
6.18
54.84
94.91
99.38
84.6
54.9
3.66
-9.82
6.72
-35.02
-80.31
-48.21
-26.86
-32.31
-20.86
21.97
75.3
84.2
58.5
42.24
27.91
-21.38
-5.01
9.27
-17.63
-31.84
-30.67
-24.06
7.09
-4.74
13.33
23.16
-7.18
-20.22
-67.98
-148.12
-88.65
12.44
33.43
33.86
25.67
62.73
76.52
60.83
38.13
39.88
41.19
9.35
-37.77
-34.44
-9.62
-5.58
41.65
70.38
-5.92
-18.38
21.96
24.58
8.9
-23.77
-71.41
-56.53
41.94
105.56
58.06
-22.94
-42.07
39.49
46.94
30.17
19.89
13
1.06
-16.56
-49.81
-81.24
-60.1
-52.45
-58.42
-13.33
30.81
34.65
15.95
-15.84
-74.87
-92.42
-37.38
-69.76
-14.68
86
109.12
67.79
51.3
59.06
48.75
84.81
46.28
0.05
5.78
13.55
27.6
-1.04
-53.32
-70.07
-3.36
-35.93
-29.74
11.62
-20.33
-74.33
-42.93
17.18
36.65
52.03
68.25
42.76
25.59
-25.34
-12.41
65.08
52.1
8.3
13.11
9.87
7.43
23.05
35.3
37.4
32.63
24.17
-14.41
-81.44
-104.85
-86.22
-2.61
-9.08
-50.8
-20.16
8.2
-9.72
-67.94
-64.57
40.88
99.75
65.55
56.41
43.57
46.19
65.29
41.72
-1.02
-48.78
-138.31
-162.52
-46.33
46.33
100.36
105.22
49.3
23.79
19.38
0.46
-33.64
-24.7
15.53
4.18
1.36
-4.91
-18.39
0.85
36.17
-3.83
-66.08
-29.27
25.67
43.91
36.74
-6.67
-13.91
18.17
0.34
-15.8
13.45
24.98
6.26
-5.6
-13.22
-71.76
-143.47
-74.89
61.14
77.47
104.58
137.53
43.75
-11.19
-10.02
1.63
-1.68
-29.53
-40.19
-31.58
-1
19.79
-17.98
-116.45
-100.49
57.66
89.31
45.17
-12.33
-5.8
-7.95
-37.12
0.65
34.08
7.8
-20.23
-21.43
4.42
55.62
58.96
27.92
-44.96
-2.51
62.08
51.47
39.56
44.15
30.84
21.55
29.49
21.99
-11.58
-101.13
-114.74
-54.04
-27.19
-7.87
44.81
54.78
33.78
19.95
28.34
23.01
7.71
-42.39
-114.49
-97.9
0.43
47.39
56.22
81.63
74.15
92.77
74.25
15.75
-31.93
-53.18
-69.14
-110.2
-129.92
-55.47
-34.64
5.36
94.42
132.69
56.58
-15.99
-9.4
31.46
3.05
-74.92
-92.25
40.08
69.9
45.39
-9.47
-45.76
-35.73
-4.26
57.96
85.22
76.87
63.79
54.71
42.82
22.88
24.7
33.88
-0.29
-60.23
-73.94
-53.73
-52.08
2.91
39.22
26.51
-7.31
-15.72
-61.7
-45.43
45.29
89.96
45.64
38.73
72.78
74.11
15.54
-31.98
-8.83
20.49
37.86
18.96
16.2
-10.24
-16.64
-46.35
-101.81
-123.28
-112.57
-28.66
-17.03
15.34
27.28
44.1
39.31
12.89
24.91
52.02
51.64
-22.53
-23.71
69.62
64.71
48.8
32.11
-14.9
-44.68
-33.47
-14.93
-11.71
-57.69
-69.01
-21.85
63.13
54.36
40.09
17.27
-8.27
-10.64
48.87
80.97
59.58
40.1
27.64
2.98
-40.89
-59.98
-71.86
-37.63
4.08
15.45
-6.45
-57.02
-72.29
-70.62
5.41
53.15
10.76
-19.52
-18.78
60.93
120.44
87.42
29.18
14.9
46.22
48.66
23.18
-16.9
-14.22
-14.49
-10.16
-25.72
-53.02
-39.5
13.38
28.33
23.07
39.1
47.92
-8.6
-54.88
-30.71
18.22
40.27
18.45
0.95
-5.78
-9.35
31.84
53.8
-14.14
-50.55
-55.04
-28.77
5.03
-83.57
-140.8
-40.17
93.72
103.03
86.2
75.13
26.55
-68.17
-80.71
31.96
99.92
81.67
60.23
40.55
20.55
-57.05
-98.11
-99.3
-66.87
10.95
35.04
5.42
-19.41
9.76
82.78
108.8
83.75
46.94
26.87
24.17
-2.89
-27.1
-78.68
-142.36
-179.25
-108.04
-2.9
85.24
127.4
81.88
39.6
25.08
42.39
48.45
38.91
25.88
14.13
-16.59
-59.52
-68.66
-52.83
-38.6
-18.37
-19.23
34.96
19.41
-22.29
4.88
4.33
-50.54
-109.99
-83.29
52.4
112.05
146.42
117.57
69.2
37.99
21.06
-2.95
-29.25
-72.66
-141.01
-178.24
-122.19
-42.98
58.47
118.73
94.77
49.07
-15.76
6.11
50.32
58.12
53.11
29.28
19.83
25.63
30
-32.31
-91.16
-52.29
-5.23
6.79
26.29
-18.62
-9.27
36.15
25.98
6.43
34.33
42.51
22.12
-43.7
-40.83
20.18
37.47
17.14
-15.56
-70.43
-55.05
2.63
27.31
-7.08
4.65
40.32
20.4
-13.25
2.99
64.49
68.92
33.87
36.18
22.79
-14.84
15.06
30.47
-8.98
-20.45
12.71
25.36
13.53
4.48
-6.12
-28.48
-69.93
-2.67
51.48
22.01
-34.31
-31.53
-19.49
-79.16
-119.36
-69.18
-0.59
51.99
57.35
81.58
102.41
76.67
16.34
-10.18
-8.42
19.56
33.81
-19.91
-46.45
-56.25
-62.38
-72.35
-129.88
-94.38
2.9
87.1
132.69
94.18
49.35
15.94
-0.39
12.04
18.05
52.14
28.28
-2.85
26.14
42.32
79.64
64.04
-6.96
-51.55
-67.42
-12.46
64.73
31.09
3.53
22.49
18.08
30.7
2.66
-37.17
-80.75
-72.59
-8.36
8
3.87
12.18
43.73
75.18
27.2
-18.04
-10.39
-1.09
-41.87
-74.01
-54.1
-48.03
21.5
65.87
47.12
45.51
28.94
11.96
17.12
13.52
4.81
8.71
17.92
13.74
-10.34
-35.36
-68.82
-34.52
37.68
24.58
16.33
-0.69
-43.15
-53.87
-24.68
-8.58
8.97
-0.57
23.32
95.37
45.5
-16.44
-14.8
0.86
6.04
-13.33
-29.01
13.28
17
15.24
12.71
14.42
1.7
17.56
42.47
33.93
6.78
51.73
62.48
18.94
-39.72
-18.77
11.72
-9.66
-51.96
-75.88
-80.44
-41.64
-26.4
15.23
44.35
58.99
60.03
39.3
28.1
54.2
50.65
22.35
-16.45
-32.22
-23.45
-22.33
-29.3
-69.64
-80.89
-28.6
39.24
58.91
61.05
19.63
-11.34
2.08
35.17
2.63
-49.29
-44.69
-25.88
-46.29
-3.28
50.66
48.37
16.96
23.27
39.45
24.25
21.62
16.29
2.99
2.32
5.99
36.25
65.12
82.49
46.38
10.14
11.99
-6.88
-18.04
-27.35
-48.88
-12.46
40.93
-12.67
-100.4
-81.67
-14.67
-6.19
12.44
35.62
38.59
26.27
10.14
17.22
22.94
-10.42
-28.79
-45.73
-28.38
25.71
59.65
29.36
-25.26
-17.59
11.12
60.89
59.13
30.61
11.4
6.14
-3.99
-28.84
-62.12
-86.91
-91.62
-43.21
46.41
107.06
103.87
66.7
30.95
29.47
13.03
-23.64
-49.79
-42.75
-26.84
24.72
35.55
-13.03
-37.01
-72.5
-58.87
-8.81
82.47
84.78
32.43
-16.62
31.17
97
66.65
47.57
61.17
29.22
-24.48
-34.71
-31.34
-15.66
-36.15
-43.9
-2.91
-5.83
-15.76
14.45
42.03
68.4
40.6
21.05
3.6
-21.73
-26.09
-22.69
-72.11
-142.11
-117.09
-47.96
35.83
82.02
98.48
53.77
-7.29
-36.77
-39.03
-43.61
-13.84
44.91
19.43
-20.7
-54.77
1.56
45.83
82.45
68.34
6.16
-31.43
-57.43
-64.67
-35.34
7.59
-0.25
-34.52
-53.68
70.64
103.47
37.67
25.63
35.51
35.19
29.87
28.35
40.93
28.85
53.6
50
14.62
1.21
-42.9
-59.46
-54.82
-18.75
-10.98
-4.16
-4.12
-12.28
-9.91
9.34
22.23
-6.35
-41.58
-58.77
-49.29
43.06
118.85
77.59
23.9
27.29
25.38
3.57
1.98
-27.22
-20.24
-2.27
5.46
6.44
-18.78
-26.78
-12.58
11.84
39.74
16.79
-83.49
-126.57
-15.63
86.81
98.82
67.1
11.05
-20.21
-23.07
-2.15
-6.8
0.39
41.02
36.89
19.92
21.56
0.21
-54.25
-147.92
-175.61
-117.17
-41.42
0.82
70.96
126.48
127.39
104.19
65.56
39.57
34.56
38.43
25.06
10.81
4.43
-8.81
-36.05
-5.93
27.52
14.61
1.04
-38.56
-73.46
-40.9
38.34
34.66
-72.03
-35.08
45.14
28.99
10.07
24.32
10.09
-28.39
-35.51
-20.08
27.69
53.95
9.2
-29.94
-12.21
30.52
24.27
19.54
13.23
-4.64
21.1
36.59
36.35
12.47
-59.12
-108.42
-73.07
-8.24
22.27
-8.03
-40.42
-32.04
-16.94
3.93
62.75
91.43
75.27
33.97
-59.99
-116.09
-40.27
31.38
31.63
29.51
-8.91
-21.17
-5.04
-16.88
-13.12
-21.6
-32.28
-5.85
12.67
10.5
9.15
10.73
33.48
78.47
59.79
-31.26
-56.25
-28.5
17.2
49.81
16.3
-17.84
-18.6
-15.86
-8.66
3.79
-1.65
-22.26
-28.16
-19.98
31.68
67.84
88.71
80.6
69.98
79.78
101.14
93.35
35.54
-2.77
-10.06
2.61
-4.02
-35.48
-71.01
-66.21
-59.36
-49.82
-3.48
16.07
29.85
29.35
11.79
-7.02
3.92
17.7
23.8
27.18
-22.14
-47.99
-22.17
-4.78
-26.17
-30.65
10.07
41.23
20.02
12.78
-1.23
-39.24
-107.54
-184.69
-244.63
-191.01
4.2
130.02
118.04
136.51
134.88
44.68
-10.99
1.43
10.1
39.13
40.72
38.27
24.72
29.49
29.51
8.82
11.34
20.6
-2.34
-20.3
-32.13
-39.24
-1.97
47.93
64.39
9.41
-16.08
-2.12
-7.18
1.68
-12.97
-25.78
-10.57
-20.22
-27.11
-24.84
-4.26
26.54
25.76
11.09
-25.46
-6.17
43.74
54.6
-13.47
-86.79
-65.82
37.93
81.35
67.43
40.13
16.39
-59.26
-85.84
-31.69
18.19
0.72
-5.84
27.21
47.24
25.9
45.67
48.2
24.75
-23.63
-55.42
-65.13
-63.37
-27.15
3.72
-42.36
-70.34
37.84
87.86
56.86
15.06
43.1
47.76
-6.89
-36.2
-9.75
37.79
43.04
37.53
6.67
-20.9
-24.49
7.89
51.11
33.54
4.7
-18.55
-42.49
-87.38
-107.13
-65.8
-23.33
5.39
35.8
60.36
49.25
38.12
46.73
47.71
38.27
2.14
-17.03
-0.41
-26.27
-33.17
9.26
-3.33
-20.08
-0.73
31.23
34.28
-3.05
-8.62
1.62
6.43
18.5
20.71
-10.05
-1.29
48.67
65.14
49.07
28.49
-2.82
-31.08
-56.77
-42.93
-24.92
-32.68
-21.68
-13.6
-23.79
-26.12
-29.45
-21.96
-10.54
-16.73
-6.62
3.3
-15.94
-8.48
43.39
38.59
25.31
18.15
32.68
21.01
-56.55
-118.08
-32.97
41.97
42.06
-13.9
-28.74
46.39
72.96
49.75
-1.58
-8.19
57.54
82.02
57.11
22.58
17.27
16.26
-30.54
-112.29
-34.59
64.8
47.42
-7.04
-46.77
-36.39
-39.79
-46.06
-4.92
49.44
57.5
49.38
54.44
42.48
-2.44
-7.73
-4.67
3.22
-0.28
-25.33
-10.91
0.09
6.68
-34.01
-115.36
-74.94
2.64
-37.39
-5.18
98.85
119.61
78.44
49.4
42.75
7.81
-15.96
3.38
40.84
29.78
-15.72
-15
-21.06
-35.78
-6.25
5.49
-15
-6.47
-7.43
-60.86
-71.68
-15.5
19.91
-35.59
-97
-51.49
52.95
53.08
-0.26
-2.56
-31.41
-98.99
-18.73
74.75
56.36
-10.21
-13.38
46.65
54.04
22.76
13.94
11.9
18.49
16.73
16.77
28.19
42.13
29.81
6.67
-7.53
-8.7
-27.32
-78.17
-87.47
-34.81
50.59
87.57
32.75
-13.69
22.42
37.46
12.16
-0.17
23.64
44.54
62.26
13.67
-16.34
-13.94
-1.04
5.44
1.28
-39.13
-68.88
-67.7
-39.19
7.09
-38.99
-152.32
-199.89
-122.65
-66.15
74.01
161.84
105.83
70.37
75.05
67.98
65.73
59.33
44.8
29.99
4.13
-31.47
-99.75
-126.79
-62.22
53.4
81.21
38.6
8.93
2.66
18.15
40.62
58.07
3.5
-36.58
7.66
43.66
63.24
41.14
16.54
-5.83
-36.92
-38.86
-9.76
-28.35
-51.66
-41.27
-16.05
3.35
15.58
15.56
8.36
20.47
11.99
32.85
58.29
59.64
26.41
-19.27
-49.71
-63.88
-45.11
-15.07
2.87
-72.96
-108.3
-81.44
-15.32
41.01
48.21
12.72
-8.42
12.61
55.89
75.31
66.14
37.42
-3.63
1.81
13.02
-25.9
-73.97
-98.03
-27.13
55.52
19.62
-28.23
-49.34
-50.99
-0.33
26.71
30.98
25.93
-6.27
-35
-15.26
37.53
58.5
36.99
48.69
63.79
46.94
26.97
-9.03
-51.43
-56.44
-64.49
-18.63
35.29
32.02
44.97
30.32
20.65
22.83
-1.13
-42.63
-34.36
-3.04
57.86
81.36
44.58
24.76
0.86
-81.68
-134.55
-154.75
-110.39
19.5
75.58
35.33
27.71
42.19
45.78
25.61
-6.97
-20.12
-8.95
34.39
41.02
11.44
-55.45
-23.35
17.71
7.27
-6.63
4.3
-2.44
-67.01
-98.85
-20.24
60.93
62.41
50.79
36.63
22.5
22.58
27.52
36.67
35.88
28.74
-1.94
-24.93
-29.27
-19.65
-40.03
-19.88
-17.58
-29.99
12.86
36.52
12.79
-14.34
-11.48
-12.73
-4.99
2.25
41.93
54.2
39.29
25.86
0.85
-40.83
-77.99
-78.58
-61.24
-11.08
20.9
25.35
3.03
37.34
19.95
-20.51
-9.59
-10.81
-10.91
39.87
41.53
38.85
15.15
-29.88
-47.8
-23.02
27.67
64.67
36.33
-57.16
-91.88
-99.83
-46.87
10.55
18.61
19.16
41.39
48.68
35.92
27.28
43.35
38.41
30.61
9.86
-8.28
5.3
26.8
17.84
-26.23
-59.48
-78.06
-74.38
-20.62
-33.59
-35.47
33.19
79.01
69.25
41.09
23.3
8.94
-18.58
-26.73
10.63
44.61
47.62
43.16
21.17
-4.61
4.11
-3.37
-50.6
-67.37
-49.34
9.94
21.61
0.83
-21.47
-16.33
-18.03
5.73
27.32
34.55
36.3
11.97
-9.41
-41.05
-36.59
-28.12
-9.74
-14.31
15.81
41.74
46.71
14.21
-4.31
-22.16
-7.48
-7.47
-25.85
-9.6
25.49
-34.08
-64.98
16.38
80.32
73.09
42.43
31.13
18.63
-0.7
-10.74
-20.96
-62.63
-105.56
-76.89
-30.92
-41.37
-8.36
57.21
40.08
9.98
-7.11
15.53
15.2
5.05
19.96
34.45
-4.16
-51.04
-57.39
16.85
75.19
49.98
41.75
51.51
43.07
3.75
-27.01
-17.98
-23.23
-24.76
-8.19
-40.89
-83.12
-41.53
21.27
13
-36.29
-31.01
24.1
87.59
101.93
61.25
36.85
11.14
-6.59
0.53
-21.84
-14.32
-6.78
-22.01
-35.46
-51.72
-35.57
25.68
63.1
44.58
23.48
29.68
34.65
-40.7
-45.67
1.75
55.68
49.25
1.19
-40.26
-37.32
-52.35
-32.4
12.53
46.69
64.18
24.15
-4.43
-26.47
-11.24
3.9
14.35
47.5
41.97
18.76
-0.98
-47.63
-74.03
-64.26
-49.83
-20.06
15.56
20.64
-19.48
-28.79
8.55
48.82
42.91
46.01
55.49
-7.8
-110.16
-146.07
-61.6
23.89
22.25
34.92
34.52
-9.68
-45.22
-14.09
48.21
65.8
38.31
12.08
10.58
-23.5
-9.76
52.7
65.68
33.63
15.33
2.84
-11.72
-7.9
20.72
29.53
2.2
-23.47
-37.18
-17.93
-15.76
-76.15
-87.03
5.31
50.23
23.6
-25.66
-20.88
-10.5
-9.02
21.19
34.44
52.16
46.58
44.17
17.1
-12.38
-15.14
-57.69
-114.89
-145.67
-114.29
-1.01
49.52
64.41
14.77
-50.78
-14.55
73.15
57.76
39.5
36.87
27.33
48.15
66.66
43.29
36.74
38.41
27.51
14.81
-4.3
-40.45
-84.04
-60.35
-7.95
39.56
-7.41
-59.11
-40.06
5.43
15.24
10.46
17.95
36.8
37.83
30.84
27.06
34.61
22.09
-19.5
-42.71
-34.56
-66.95
-78.8
-46.98
-31.15
-17.23
40.18
61.61
26.46
-7.66
-11.06
23.85
56.56
57.52
26.15
-30.52
-56.15
-57.6
-0.53
52.88
58.12
-5.01
-39.61
-79.24
-29.99
42.65
17.41
22.78
43.03
29.58
-24.12
-10.66
24.21
24.26
29.85
45.37
38.79
-0.14
-29.23
-11.22
1.34
-34.27
-75.97
-44.82
6.99
8.3
13.76
69.04
69.9
6.6
-21.59
-17.16
-5.03
-5.3
-6.07
-49.97
-159.83
-98.88
-42.1
-23.51
43.89
49.03
10.31
12.19
24.87
38.2
42.93
21.07
-13.91
24.08
38.76
0.91
-53.14
-43.42
-4.52
5.52
18.86
12.2
18.82
65.64
59.06
27.68
4.41
2.08
25.94
25.66
-12.78
-50.43
-86.4
-64.32
25.47
18.32
-10.34
-40
-43.12
-0.81
45.61
68.12
63.69
39.6
11.15
-9.99
-36.52
-39.91
7.01
67.51
57.75
17.51
-10.87
16.11
35.87
25.48
-12.15
-19.49
12.92
14.07
-21.9
-40.21
-15.38
6.67
32.55
45.05
28.23
16.98
-16.56
-55.96
-38.46
-16.52
-1.31
-18.81
-34.46
-50.42
-44.23
-9.33
7.14
-12.94
-44.7
-30.99
-79.62
-83.34
-44.11
11.18
61.26
61.02
14.7
23.2
43.96
85.83
76.85
17.5
18.28
31.21
39.3
46.58
37.36
31.56
34.06
5.41
-25.95
0.45
-5.72
-62.46
-100.47
-90.89
-55.05
0.85
19.22
-16.83
-21.96
0.26
-7.25
-27.78
-6.16
28.04
30.99
47.93
36.72
6.39
-0.89
-17.38
-45.25
-48.85
-63.98
-52.77
-11.83
7.21
45.41
71.35
67.98
51.32
22.75
9.42
5.91
-18.16
-19.4
11.26
7.22
-28.86
-98.95
-89.64
-7.99
24.33
11.07
20.32
18.65
24
42.61
34.48
35.49
45.79
1.35
-33.34
-25.66
6.88
8.35
-9.61
0.21
22.87
27.42
5
11.02
-8.09
-19.48
5.37
-10.41
-39.22
-35.05
-35.7
-10.12
39.53
38.93
19.05
21.07
33.98
17.05
3.83
-10.95
5.83
33.25
19.88
-12.24
-39.49
-51.02
-50.08
3.56
42.07
25.81
-55.7
-54.41
-21.18
-7.27
5.58
-0.77
6.58
20.81
-16.46
-61.75
-54.96
-35.58
15.29
85.63
82.46
17.81
14.78
26.79
10.49
-7.85
9.37
31.66
5.19
-26.54
-58.61
-37.85
-75.6
-162.42
-116.37
52.41
151.91
136.01
103.19
51.92
14.08
22.01
26.37
17.74
8.06
0.26
-3.05
-36.57
-97.85
-140.47
-136.07
-55.2
63.37
100.92
62.19
27.55
37.94
42.58
15.74
5.22
-5.57
-33.13
-70.11
-63.36
-22.88
12.75
24.22
-1.24
-30.01
-15.18
37.81
63.91
46.2
18.6
-9.32
-43.38
-12.2
-11.52
7.22
98.26
40.1
-42.14
-67.82
-42.16
-7.6
32.6
59.32
57.49
19.81
-36.13
-54.49
-51.69
-18.6
11.66
-29.8
-50.57
11.59
60.48
40.17
26.37
43.48
41.75
37.01
42.17
54.78
23.73
-31.9
-42.09
-6.07
7.11
-12.24
-14.77
-8.6
-9.23
-65.33
-129.08
-125.63
3.35
82.27
55.49
-19.59
-19.22
27.3
62.91
37.96
7.52
-9.95
18.99
7.24
-39.3
-61.12
-10.01
47.82
41.24
29.34
10.6
1.18
21.09
78.99
71.2
18.09
-2.23
20.54
14.16
-36.65
-66.11
-53.14
-67.7
-83.23
-67.64
-8.8
37.74
62.92
28.87
29.85
20.51
-26.58
3.26
62.48
48.6
19.94
29.23
54.11
52.18
-41.66
-82.29
5.74
8.56
-60.31
-59.58
-3.63
-7.21
-15.85
-46.43
-75.21
-12.06
40.61
12.3
-38.96
-70.72
-61.7
-44.79
16.11
87.27
85.08
86.39
56.32
-17.79
-52.61
-15.56
29.71
24.12
21.38
20.72
-9.14
-32.52
-0.42
36.75
5.9
-53.03
-74.61
-18.26
18.9
31
49.58
19.79
-8.46
12.52
40.07
-18.56
-43.06
2.5
50.8
33.9
11.75
3.62
-31.21
-6.53
17.19
25.89
-6.76
-38.6
-38.31
-30.83
-32.88
-15.47
3.82
-19.52
-49.89
-64.93
0.95
46.37
37.63
13.92
3.47
-18.8
16.86
16.79
-8.38
0.64
9.45
12.43
33.29
35.53
15.47
25.95
28.85
-11.5
-50.01
-27.88
-4.36
13.87
15.12
0.99
-23.23
-40.75
-27.18
-6.59
19.62
39.77
-13.04
-72.46
-48.62
44.55
56.66
40.89
11.98
11.95
-3.11
-15.66
-4.55
2.57
13.47
-8.04
-29.66
-50.81
-40.34
-2.54
-14.62
-36.6
-14.87
6.27
15.23
16.88
-9.46
-31.02
24.58
50.85
32.29
5.32
-57.19
-19.68
23.3
17.13
-6.08
-19.96
-2.97
20.19
22.36
5.16
-5.78
23.34
34.75
-1.39
-7.06
13.56
-16.59
-19.64
-1.52
-0.76
-20.92
-23.71
-13.52
-0.48
5.64
33.71
32.68
-0.92
-16.68
-20.81
-45.7
-44.35
11.66
16.93
-46.04
-70.26
-77
-10.49
99.95
94.6
46.42
37.26
41.24
37.58
12.57
-34.01
-71.7
-80.28
-9.95
46.33
62.47
34.85
-9.17
-26.92
-32.38
-7.65
19.23
19.46
-3.1
-19.94
-53.57
-7.47
44.49
14.22
-45.05
-60.17
-24.95
45.24
73.14
45.19
37.39
26.11
14.82
12.97
30.14
22.11
11.72
9.69
12.38
24.12
-0.29
-25.88
-28.66
-39.3
-61.59
-25.68
-1.18
-34.06
-57
-41.36
-38.35
-38.58
25.84
81.99
59.62
17.76
23.17
36.83
31.04
6.54
-9.94
-29.03
-10.47
13.54
-24.32
-72.88
-61.96
19.97
70.64
-25.35
-83.44
-67.74
2.86
57.23
42.03
53.41
54.84
0.06
-49.43
-25.96
-3.92
15.06
25.36
13.4
14.61
16.47
2.84
-9.18
-12.98
-6.97
-15.31
-21.98
-34.88
-21.06
11.16
-12.17
-23.24
12.62
51.72
48.91
53.62
49.72
34.4
-10.74
-35.85
-44.93
-45.58
-27.5
-59.09
-110.86
-116.65
-42.83
-3.07
-12.82
82.21
112.64
54.48
19.24
18.64
14.76
-0.59
-18.49
8.55
-1.67
-5.14
25.13
21.75
9.4
11.91
35.78
18.65
3.63
15.71
4.01
-16.28
-21.58
-26.77
-28.71
-23.92
-54.35
-25.78
66.25
74.68
45.68
25.8
15.79
11.02
8.04
-28.82
-34.92
-30.98
-18.94
-4.33
5.53
15.06
1
-21.09
-6.17
25.72
-2.03
-27.62
-17.87
2.27
-25.69
-21.82
-4.6
9.06
65.13
53.06
-3.21
-38.5
-53.49
6.23
-5.15
-45.94
-36.96
-29.29
25.84
50.65
47.97
39.49
39.17
26.78
-1.65
-26.53
-11.54
7.68
-10.75
-18.58
-12.14
-16.52
-50.8
-68.69
-61.57
0.37
48.69
36.16
10.69
4.85
16.65
22.23
37.15
16.03
15.77
31.57
-3.43
-51.14
-110.83
-120.97
-52.46
80.38
88.19
45.4
59.9
56.81
35.87
8.87
-2.89
-2.99
15.97
30.18
18.78
11.87
-0.45
-19.86
-47.42
-82.56
-165.99
-176.61
-34.63
73.41
55.73
54.83
67.55
65.01
49.57
-16.09
-35.09
34.23
62.05
46.9
44.39
55.64
38.52
9.39
1.8
8.36
-5.57
-40.51
-31.3
0.42
-17.48
-40.52
-62.12
-65.07
-30.04
-12.17
-20.31
4.51
39.33
51.7
72.31
67.54
33.11
-2.55
-26.96
-41.6
-51.75
-27.29
-39.57
-66.44
-44.96
-12.82
-2.1
7.72
17.99
22.17
48.91
53.23
-0.51
-32.39
-11.02
58.19
75.81
79.9
22.47
-39.79
-63.15
-63.45
-96.94
-63.28
-15.08
2.3
-15.53
-50.83
-76.54
-30.49
73.77
65.47
22.8
8.84
43.56
44.34
33.96
40.27
32.85
17.45
15.84
13.76
7.35
1.14
-6.3
-23.73
-47.97
-36.15
-42.3
-23.51
2.69
7.75
-29.57
-54.82
0.43
78.54
60.79
19.86
-13.22
-16
-9.74
0.37
-6.92
-18.29
-17.06
-22.11
-38.31
-49.33
-87.56
-27.17
39.15
59.64
68.89
63.54
8.87
-12.05
7.31
39.49
39.73
25.33
21.91
5.54
-42.67
-80.22
-53.91
-4.68
33
23.74
8
-33.56
-91.01
-50.3
32.93
33.6
31.33
82.98
40.94
-5.51
-8.61
10.14
25.64
6.05
-24.23
-35.77
-45.41
-67.3
-67.06
-36.28
-5.48
17.27
18.64
31.14
38.4
-0.57
-72.03
-86.78
-25.63
70.14
81.98
38.6
29.31
13.44
-53.63
-141.87
-129.58
-37.02
48.61
38.01
14.18
38.54
44.54
22.62
6.41
39.62
29.49
-2.46
0.97
28.24
25.62
15.64
-2.92
-20.57
-26.62
-7.86
24.51
29.12
23.69
3.26
-35.18
-40.06
-7.61
19.82
30.55
21.6
-0.78
14.97
36.28
15.73
2.31
-1.42
-8.96
22.35
-17.32
-16.97
-6.31
-16.58
57.19
90.09
27.74
-7.1
-4.91
2.36
5.28
1.68
-14.92
-24.74
1.71
8.59
-16.61
-29.99
-27.33
-18.32
14.99
-5.05
-62.65
-96.53
-93.19
-68.78
9.12
48.78
41.58
21.33
24.05
43.28
37.45
-2.94
-48.31
-40.83
-8.43
17.41
39.52
34
29.19
32.7
15.43
-6.33
-46.21
-60.72
-41.88
-7.06
-1.58
-20.56
15.55
30.11
5.86
2.09
6.88
-6.06
-38.05
-54.88
-18.86
-3.75
-30.23
-30.78
-63.69
-104.33
-36.79
64.11
90.56
75.62
43.08
0.92
-13.77
-37.58
-29
18.93
58.26
71.32
51.92
-7.52
-59.46
-63.99
-59.2
-8.12
21.5
47.74
47
52.58
26.72
13.15
18.97
9.09
-14.31
-13.68
11.05
-8.24
-46.26
-9.05
37.76
54.44
41.92
5.68
-9.04
25.82
48.03
24.44
-14.09
-18.61
-36.79
-38.45
-18.29
-36.22
-86.75
-67.86
-6.72
23.94
49.47
66.09
48.62
45.09
35.98
-8.39
-21.34
3.27
5.07
3.31
4.26
-0.09
-19.69
-29.73
-58.62
-73.37
-43.64
-12.86
-19.61
-32.51
-24.26
11.54
34.94
40.61
26.12
-9.95
-41.59
-54.12
-34.97
22.17
16.45
18.67
32.05
9.66
-68.43
-96.81
-19.21
82.92
96.04
52.3
-6.96
-1.7
32.02
38.03
56.91
58.91
33.69
22.69
9.99
-12.7
-29.73
-25.22
-3.44
-22.48
-81.65
-84.11
-37.24
29.26
33.47
18.83
31.93
36.56
2.37
-10.07
16.73
36.85
29.28
34.76
-7.73
-109.36
-99.55
-54.29
34.62
50.6
24.32
13.15
10.81
1.38
9.44
4.24
-15.9
-7.97
-5.78
13.39
25.2
32.17
29.59
16.16
-0.19
-10.67
-9.95
-45.83
-70.84
-94.45
-100.26
-39.29
21.38
62.06
91.89
51.08
-10.43
-41.9
-18.1
5.94
22.9
57.51
56.69
46.05
29.91
-0.3
-35.51
-36.78
-24.33
-27.22
-4.71
31.18
14.7
-23.43
-5.66
31.2
1.92
-8.59
0.61
-19.7
-3.86
5.4
35.1
8.93
-41.12
-26.65
18.79
41.44
8.86
-37.24
-35.98
3.8
18.36
7.46
25.03
52.25
34.63
4.63
-11.41
-6.4
-17.64
-27.35
-2.18
14.58
37.69
14.97
-1.2
11.4
33.83
24.27
-2.17
-16.77
-38.92
-38.32
-10.63
-40.38
-59.72
-38.95
-26.55
-8.97
27.24
66.95
48.91
32.22
24.91
4.83
-8.43
-6.26
-7.74
1.34
-2.72
-30.48
0.67
27.43
5.36
-20.82
-43.19
-49.52
-51.83
-42.73
-18.76
5.7
12.91
47.86
45.01
11.2
-17.72
-22.33
-6.44
-50.02
-22.72
18.11
22.02
5.45
7.8
33.3
21.26
-10.34
-6.96
-10.77
-14.89
-17.73
-18.24
15.11
12.97
-14.85
-20.39
12.2
22.04
36.11
20.48
-24.33
-64.7
-57.45
3.19
49.66
36.49
-8.86
-12.28
17.78
35.93
18.16
-17.15
-50.82
-101.87
-176.36
-63.9
118.03
97.34
50.28
43.62
52.91
43.96
40.35
24.84
17.38
10.29
-4.27
16.72
15.87
8.42
6.99
-16.84
-50.44
-71.67
-31.76
16.32
-6.75
-51.6
-14.32
26.97
3.72
-24.36
13.33
34.37
16.69
15.79
38.67
25.54
-7.08
-39.85
-95.29
-44.52
47.14
18.16
-45.63
-51.42
0.27
26.87
24.71
-37.55
-153.1
-143.85
-28.53
71.35
119.8
73.21
12.88
-22.94
-30.17
-18.23
15.27
50.84
56.93
21.19
1.5
14.42
-27.35
-48.9
3.11
12.42
-2.56
-3.93
6.53
24.38
-17.85
-63.89
-10.46
17.19
-8.85
-22.63
-9.02
25.14
27.1
-6.54
5.31
73.58
86.66
33.04
0.7
8.12
12.37
-0.83
-13.05
-26.32
-57.27
-70.49
-41.82
-13.34
-29.23
-78.57
-67.74
-2.75
45.69
61.5
48.57
22.82
18.42
20.37
28.86
12.62
9.25
-41.69
-83.4
-21.28
2.75
7.01
11.38
23.02
31.8
-0.1
-34.42
0.55
48.67
31.01
-8.91
-21.68
-40.88
-55.61
-10.32
27.57
47.87
30.32
14.74
9.08
-7.5
20.12
65.34
64.36
11.68
-93.35
-168.17
-133.44
-49.53
28.59
92.11
74.85
33.26
18.1
-5.44
-49.1
-72.47
-21.5
30.15
12.02
-3.43
-27.84
8.44
17.22
-44.49
-24.08
21.68
34.57
34.91
35.05
47.25
27.7
-0.17
18.81
28.86
16.13
19.68
20.02
6.28
-14.27
-38.68
-37.19
-5.73
6.53
-14.56
-32.04
-32.29
-20.9
-11.65
-6.41
15.55
30.16
13.5
11.1
14.46
-15.55
-17.77
-31.91
-41.41
-10.17
-3.03
-0.98
15.77
36.11
16.41
-12.79
-35.77
-39.87
17.64
34.62
-3.14
-12.99
-5.3
-23.2
-43.48
-51.4
-3.24
60.9
65.51
-14.04
-57.01
-26.01
-2.41
-38.36
-31.69
24.23
20.15
3.92
-4.05
-40.25
-73.67
-25.59
48.37
45.68
48.43
56.93
32.34
26.92
45.54
37.9
26.49
27.51
36.36
20.36
-31.52
-37.92
-49.64
-72.6
-31.55
40.19
45.95
-6.8
-29.39
-20.93
2.12
47.12
19.85
-30.57
12.33
52.47
15.22
-36.68
-46.54
-68.63
-142.98
-121.15
-12.31
83.17
78.67
47.9
33.42
-22.73
-58.56
-21.11
55.65
97.16
75.11
41.73
27.94
0.95
-2.34
-1.71
-21.54
-32.43
-8.63
14.61
10.56
6.98
-3.5
-29.22
-16.36
9.54
8.09
-7.49
-2.6
-19.26
-19.62
27.45
34.54
14.38
33.13
39.82
14.74
-33.21
-65.46
-61.23
-49.14
16.63
22.12
-34.29
-29.35
4.89
-16.24
-28.01
32.56
35.67
22.75
8.11
14.66
10.69
10.17
22.62
14.82
-0.22
-12.9
-53.06
-124.23
-109.91
-14.88
82.96
73.96
55.98
48.87
29.98
2.31
-9.37
-7.75
1.41
5.54
-2.79
-4.03
26.73
7.93
-22.88
-39.21
-22.75
-9.5
-8.34
22.29
29.33
14.08
-8.77
-13.54
-3.07
-8.92
-56.17
-30.16
28.28
40.17
15.42
13.84
34.59
21
-3.53
-12.71
-33.67
-61.6
-49.49
-67.97
-92.65
-65.58
9.79
49.77
67.53
32.73
26.35
56.25
44.8
27.28
28.76
-0.18
-51.11
-12.38
13.47
19.11
30.6
27.6
5.34
-10.9
-24.4
-33.02
-18.31
10.02
16.03
15.22
14.65
-8.12
-18.01
-12.7
3.49
22.01
32.01
31.4
13.7
-2.83
-2.53
2.26
-9.47
-21.6
-11.19
-11.62
-7.89
-5.15
-9.72
-11.81
-6.33
1.39
8.94
-5.88
-38.85
-12.51
35.16
36.62
10.5
-28.91
-37.07
-11.23
-39.81
-41.81
-0.38
16.79
13.01
-0.92
-9.51
0.58
21.41
26.61
24.09
21.25
20.57
12.68
3.21
3.55
3.61
1.66
-1.44
-3.09
-3.75
-13.51
-28.83
-26.65
-20.64
-13.38
-7.9
-3.3
0.05
1.07
-0.46
0.57
5.43
8.37
2.7
-6.38
-7.69
-17.23
-21.04
9.42
22.77
-1.42
-10.6
-11.27
-16.27
-20.3
-19.39
-14.52
-4.05
10.23
20.46
18.73
16.37
16.61
15.03
16.15
12.28
7.56
3.53
-8.23
-9.83
-15.59
-14.97
-10.83
-14.17
-16.98
-12.35
-7.24
-11.48
4.65
12.35
12.82
6.18
1.48
5.61
17.84
21.9
18.13
12.83
9.89
6.35
2.55
-11.22
-20.09
-18.1
-20.32
-8.69
-3.07
-4.89
-3.71
0.72
2.03
4.49
8.19
8.3
11.1
12.44
11.61
9.21
6.67
5.64
0.72
-2.12
-6.15
-7.38
-8.42
-14.89
-17.88
-10.99
-1.47
3.68
2.39
2.59
6.4
10.9
12.05
12.65
13.79
12.33
8.45
6.6
4.94
-0.26
-3.71
-6.96
-9.53
-10.45
-8.57
-7.19
-6.9
-3.74
-0.08
5.1
6.32
7.53
9.96
13.13
13.73
12.7
11.53
9.03
6.98
1.13
-2.19
-4.29
-5.57
-8.91
-9.87
-7.42
-6.84
-3.76
-0.72
3.61
6.26
4.84
9.32
11.95
13.96
14.39
14.69
10.32
5.58
1
-1.4
-3.5
-6.41
-9.52
-12.63
-12.46
-9.74
-6.21
-4.75
-3.43
-1.92
2.64
5.69
7.38
8.7
10.53
10.12
7.98
7.81
4.43
0.66
-5.89
-8.1
-13.87
-14.94
-13.62
-12.86
-11.25
-8.6
-5.37
-1
5.15
7.24
9.26
7.32
4.86
10.26
8.78
8.09
3.87
-1.6
-5.54
-1.41
-2.4
-7.72
-12.52
-13.14
-10.3
-5.78
-2.55
2.85
6.14
7.75
10.18
12.98
13.9
14.68
15.94
15.64
14.59
9.2
5.27
-0.92
-7.31
-7.67
-10.86
-10.61
-7.34
-2.91
1
2.18
12.91
16.49
9.97
4.82
2.9
3.89
1.45
7.28
2.64
-0.65
-2.52
-8.22
-8.79
-8.84
-8.41
-10.75
-10.21
-11.47
-10.79
-8.42
-5.13
0.74
3.78
6.2
8.33
12.08
12.84
11.01
9.82
3.97
2.24
-0.04
-3.8
-7.89
-11.6
-9.15
-9.04
-11.16
-10.12
-8.53
-2.37
3.67
5.76
11.18
12.74
12.17
12.13
7.76
8.93
8.51
7.03
-3.14
-3.54
0.83
3.88
-1.4
-8.27
-9.63
-10
-3.94
-2.02
-3.59
1.07
6.82
10.13
13.23
16.77
12.53
3.73
0.89
1.74
1.43
-0.83
-3.48
-4.14
-9.41
-15.51
-14.04
-13.9
-8.93
-5.84
-1.59
-1.4
-2.47
-5.7
-6.49
2.94
12.11
13.42
16.07
12.75
13.25
3.93
-3.33
-7.06
-14.87
-17.09
-27.28
-33.4
-37
-32.37
-23.04
-14.76
-3.34
10.28
8.81
-4.42
-2.16
3.97
8.35
14.18
26.79
23.91
17.13
19.43
16.28
6.07
-8.33
-21.3
-22.34
-12.46
-9.51
-26.2
-20.05
-3.29
13.11
32.69
28.03
-0.06
-13.18
-8.26
4.65
6.42
11.36
15.81
8.46
5.02
2.57
4.55
0.88
-3.26
-5.91
-4.39
1.55
4.97
9.33
7.27
6
0.22
2.27
12.5
18.06
11.9
-0.01
-7.27
-8.1
-15.91
-28.31
-34.47
-37.05
-27.76
-16.64
-16.76
-9.93
3.93
-0.7
-6.34
0.74
11.41
11.64
-2.81
-11.45
0.07
7.15
3.97
12.05
9.79
0.3
-21.29
-31.68
-26.2
-27.1
-24.89
-20.13
-2.49
18.1
18.57
-3.87
-19.89
-26.07
-55.34
-65.39
-52.3
-37.48
-27.57
-18.02
-16.28
10.51
37.89
39.79
17.91
3.33
14.87
5.28
5.72
-8.9
-2.19
40.77
24.89
-29.51
-75.37
-28.34
40.53
73.56
39.53
9.1
22.03
20.11
-0.29
0.68
8.09
9.65
4.98
8.65
6.67
-24.35
-78.73
-92.77
-43.73
60.6
61.04
13.36
9.58
15.8
18.72
22.57
21.78
14.94
-2.78
-3.81
11.85
7.01
-39.96
-72.76
-51.15
-16.38
5.12
19.55
41.52
50.4
18.94
4.84
17.26
21.39
35.05
14.27
-8.61
-2.31
-8.7
-54.94
-65.32
-47.59
3.64
29.49
37.01
27.8
16.75
20.13
5.5
-4.64
16.7
17.61
-15.04
-17.1
-6.76
11.31
14.68
20.18
16.3
20.65
6.23
-27.87
-40.1
-59.09
-66.39
-54.82
0.27
-0.49
-28.48
-8.34
25.18
32
40.28
49.68
30.64
-3.57
-39.33
-22.02
-0.22
28.89
44.21
46.25
20.44
-43.28
-49.41
-9.34
18.09
37.77
40.32
34.21
3.87
-61.71
-61.52
-18.71
45.66
59.73
20.81
-4.63
-3.88
-24.51
-55.37
-27.42
25.9
18.07
-20.09
-44.81
-68.53
-27.86
11.41
31.28
8.99
-32.93
-39.77
11.85
61.56
28.73
-17.97
-7.57
39.57
44.34
-6.27
-32.29
-50.82
-56.29
-9.88
25.81
23.12
36.52
40.03
20.2
17.75
19
5.85
-2.31
-20.99
-53.38
-87.08
-55.16
2.46
31.15
58.26
63.46
26.18
0.11
-14.25
2.18
32.49
43.27
44.48
42.34
44.92
15.46
-27.31
-18.46
17.49
16.67
-7.24
-28.75
-35.25
-0.72
31.01
4.29
-36.01
-35.91
-12.49
2.5
16.96
29.33
13.84
21.78
30.79
-5.59
-75.83
-115.7
-111.14
-88.65
-6.96
78.82
81.69
52.23
39.82
31.19
19.81
-18.44
-33.33
-10.52
6.15
6.43
-8.77
-9.92
16.66
16.4
-23.05
-35.6
-30.27
6.14
31.38
34.25
31.94
-15.42
-38.68
-28.85
18.21
51.69
12.47
-22.59
-22.18
38.84
57.86
37.23
-3.66
0.88
-4.47
-18.81
-8.16
18.59
29.29
47.58
52.57
18.62
-27.36
-44.34
0.7
19.57
15.92
-10.29
-50.02
-72.65
-23.72
36.59
18.08
-8.76
-3.22
39.72
13.81
15.41
35.83
34.08
9.13
-10.67
-2.32
9.04
24.36
29.77
29.7
8.64
-3.3
11.11
-20.78
-89.73
-72.95
-62.37
-88.43
-40.6
60.43
46
16.64
14.31
15.74
28.32
-10.79
-28.05
-4.12
9.74
15.29
13.23
-11.56
-52.39
-63.29
-14.23
14.88
-16.21
-15.94
27.62
43.02
42.12
52.18
37.68
28.93
12.19
-34.63
-81.6
-79.21
-66.77
-49.46
-36.65
-19.89
8.75
18.99
3.75
-1.66
7.81
-5.36
-41.14
-49.11
-0.86
41.06
64.26
49.21
24.04
3.49
-17.65
-23.31
-29.46
-18.74
15.92
11
-30.11
-51.58
-43.34
13.32
54.66
68.03
34.82
-0.21
-34.05
-67.07
-29.57
51.11
119.12
139.81
87.61
16.06
35.53
26.27
-72.51
-107.17
-78.59
-35.61
-3.03
7.45
21.64
9.29
33.93
77.16
55.37
16.56
2.18
44.52
50.26
33.89
35.35
31.17
12.96
-21.44
-44.65
-31.51
-38.91
-52.05
-73.12
-90.16
-39.27
20.7
63.04
56.19
39.05
24.01
28.87
36.23
33.44
34.41
16.17
-39.44
-44.04
9.68
1.39
-13.1
-3.51
23.54
6.31
-6.89
-13.51
-25.12
-27.45
-54.07
-136.51
-141.71
-64.99
7.03
45.69
22.79
-14.05
1.43
25.84
0.27
-34.16
-46.19
-41.42
-15.73
18.35
-9.45
-33.37
-1.2
-39.04
-20.16
21.32
51.41
43.69
18.93
5.82
-3.22
-44.67
-33.76
-7.03
-17.35
-8.83
-13.09
-29.3
-32.32
-20.53
-13.59
-9.08
10.36
20.85
-3.69
5.61
-8.37
-34.33
-78.49
-16.85
75
70.59
84.83
64.51
57.45
50.98
30.55
17.74
6.7
-7.88
-12.36
-46.22
-90.07
-83.94
-74.03
-101.43
-82.2
-28.47
-9.58
-14.32
55.78
72.98
62.04
47.93
41.48
37.56
24.88
-5.24
-21.69
-4.8
-29.32
-93.05
-63.18
5.86
33.91
34.29
29.64
37.85
27.98
44.51
28.64
-8.15
-2.48
15.93
0.2
-39.04
-35.18
4.75
38.49
38.72
16.41
-9.65
20.48
33.31
21.07
2.57
-3.9
-29.92
-68.18
-76.77
-78.08
-84.18
-51.55
-50.74
21.04
75.72
41.71
40.34
40.44
35.38
11.26
-35.75
-36.04
46.58
80.39
13.4
-35.69
-29.36
-4.43
29.27
28.67
-49.22
-56.57
58.71
106.12
40.43
-20.48
-33.33
-37.1
-52.75
-58.49
-36.95
-13.79
-36.73
-81.3
-126.38
-107.66
-6.88
81.7
117.83
82.72
62.23
62.29
37.12
-0.29
-14.03
-2.66
9.95
15.74
15.23
-0.3
-43.03
-48.89
-15.57
-28.81
-25.02
-8.82
-24.07
-43.16
2.54
30.63
18.03
9.28
-11
-17.93
-0.79
-21.38
-45.4
-22.71
7.04
51.86
40.18
18.14
3.56
6.95
1.67
-4.33
29.49
60.15
23.09
-12.97
-12.4
3.29
-3.6
-26.31
-15.38
59.3
90.17
19.78
-75.98
-88.12
21.66
93.31
67.05
50.56
57.06
17.74
-35.61
-49.63
-36.74
-16.81
-24.19
-41.57
-16.99
-5.4
-9.61
-7.06
-22.69
-4.03
-2.1
-22.88
-15.8
-6.55
-26.86
-46.02
-23.99
-13.59
24.96
59.89
37.31
0.04
-30.92
-25.64
17.34
21.52
-42.41
-44.17
1.02
25.41
16.84
-5.65
-34.57
-35.73
12.81
24
26
10.61
-17.28
-9.82
-2.89
-36.84
-49.03
-28.28
-7.33
45.39
71.9
49.51
20.3
-11.91
-49.22
-46.9
-61.04
-22.13
28.27
-7.15
-14.16
-42.01
-87.75
-33.86
104.11
127.76
66.91
21.03
31.36
65.01
93.3
42.41
-14.75
25.11
84.09
23.77
-45.3
-26.47
-40.88
-101.46
-99.87
-59.62
-41.17
-16.09
1.75
12.69
21.06
47.67
21.98
-34.81
-28.72
2.91
24.03
16.34
1.9
-6.13
18.37
32.9
12.04
-17.38
-31.1
-41.55
-34.35
-30.27
-11.16
-2.8
-16.42
-30.99
-10.76
34.52
47.9
25.25
-37.58
-94.13
-98.47
-25.61
41.04
44.79
7.75
-14.43
-54.95
-71.94
3.45
18.95
27.01
22.09
-10.09
-24.58
-26.73
-9.91
40.17
63.55
60.25
46.47
55.91
54.67
54.94
40.21
9.54
-31.01
-51.03
-76.58
-118.79
-113.08
-41.53
-18.46
-31.19
-21.37
17.32
60.84
55.72
61.7
53.71
9.15
-7.1
-4.28
-8.99
-27.42
-18.23
-2.26
-24.06
-67.2
-95.32
-45.17
-6.06
-4.27
19.5
38.12
24.02
7.32
26.85
54.61
57.18
38.27
26.66
31.61
-2.01
-70.56
-84
-21.38
8.46
14.19
10.48
-20.19
-10.16
44.42
49.73
27.51
32.84
17.76
2.67
-1
-31.63
-32.28
-18.6
-13.96
-9.31
-6.45
-17.73
-23.01
-9.68
1.3
14.22
0.95
-3.18
8.81
-8.23
-27.39
-31.06
-5.65
-4.97
-41.59
-39.34
-50.16
-57.4
21.8
86.49
73.86
29.57
-21.59
-41.98
-17.96
3.21
-19.24
-36.97
8.17
34.73
15.22
-40.62
-62.53
-85.66
-63.08
17.92
55.67
59.43
56.65
70.07
76.65
57.92
39.07
-9.56
-74.99
-143.13
-97.6
-4.04
3.82
-56.12
-17.25
57.68
40.62
9.6
2.88
-3.05
2.72
11.65
4.41
-3.96
-40.5
-19.32
14.11
9.03
4.15
18.22
42.93
58.96
26.51
-11.93
-21.82
-15.76
6.94
2.51
4.02
-3.88
-2.37
19.42
-10.51
-24.09
11.69
13.65
-11.36
-57.43
-72.43
-19.68
-10.9
-11.16
-9.75
19.61
52.35
43.08
17.02
2.88
9.75
22.69
44.45
52.19
30.01
-30.36
-52.24
-11.89
28.94
29.54
8.95
-6.43
-20.1
-27.44
-32.5
-47.86
-39.14
-8.11
-12.47
-4.67
-14.37
-25.49
15.71
62.05
69.32
41.64
18.57
19.83
-3.57
-22.78
-53.66
-91.12
-73.02
-38.29
-65.57
-96.32
-18.81
47.8
32.66
26.26
40.65
41.35
35.75
15.25
4.06
-6.16
-7.43
-4.54
0.92
-17.94
-21.47
-19.14
-3.97
-4.4
-15.26
-5.36
11.59
-9.42
-58.07
-56.92
0.58
60.32
56.72
26.52
19.47
17.53
12.01
23.46
33.54
10.61
1.68
25.32
13.08
-16.3
-15.65
2.71
0.31
4.97
-9.88
-27.6
-63.5
-82.81
-47.23
29.37
51.56
40.28
36.4
7.1
-39.92
-46.8
-25.27
-0.41
27.15
38.29
-21.1
-41.18
-36.11
-40.45
-49.33
-15.16
28.51
53.68
51.38
14.9
-15.34
-21.39
0.85
1.45
23.64
21.11
20.8
6.09
-4.62
-0.24
24.21
13.91
-9.79
-16.59
-30.7
-56.19
-65.4
-48.37
6.04
-0.78
-26.69
-6.62
23.25
54.67
72.91
67.69
30.01
-1.8
-6.85
-16.2
-45.57
-61.95
-51.1
-17.66
-16.04
-24.33
7.78
41.95
-2.73
-51.1
-26.21
36.56
96.12
45.76
30.21
47.88
0.37
-23.86
6.29
-20.59
-47.03
-43.54
-37.93
-23.05
-13.04
-2.04
36.01
51.4
41.88
9.32
-9.39
-30.4
-19.27
-0.59
-5.68
-17.52
2.88
51.4
61.52
38.92
4.37
-5.42
1.62
-17.97
-39.4
-46.31
-46.79
-27.43
-7.42
10.83
10.55
-38.66
-65.83
-54.26
-59.12
-26.79
47.98
71.77
62.65
58.99
55.35
31.19
12.91
-41.79
-100.33
-73.92
-15.2
21.69
39.17
49.31
27.68
26.12
38.07
62.77
81.3
50.37
-14.63
-17.88
-9.19
-9.72
-5.73
-14.37
-11.52
-8.72
-9.6
-17.77
-23.5
-41.94
-62.52
-69.09
-47.54
-17.55
-2.51
4.54
21.86
14.56
6.37
14.07
21.62
9.69
-25.67
-67.96
-78.48
-82.8
-2.75
37.72
43.47
24.3
-34.68
-49.24
3.9
46.71
44.81
-19
-60.26
-11.28
54.69
59.92
52.46
38.64
24.24
11.5
8.73
-24.74
-48.3
-32.03
6.12
16
-7.99
-7.94
15.76
37.92
29.32
-13.69
-0.82
18.06
3.18
11.04
18.15
31.13
20.65
3.4
-7.01
-11.87
-15.28
-45.11
-39.51
-44.84
-60.85
-21.82
-12.05
9.28
49.02
60.54
35.89
16.38
7.26
6.62
-14.81
-84.75
-129.52
-49.82
29.17
15.3
-5.65
-2.52
-7.83
-12.6
0.24
1.91
14.92
8.87
18.76
54.77
53.45
29.38
26.91
25.82
9.3
2.9
-11.01
-32.47
-54.8
-27.55
9.87
2.62
-9.23
3.15
4.76
-9.88
-10.87
-9.97
-22.31
-19.44
-9.32
-8.51
-21.86
-66.46
-149.83
-97.88
26.62
83.26
73.71
47.67
24.98
20.82
31.56
16.65
-11.71
-15.65
-10.56
-37.12
-63.88
-28.29
2.95
30.13
37.85
51.08
55.72
51.92
-2.18
-50.47
-39.05
-5.64
33.77
30.73
0.73
-21.88
-17.21
38.99
29.47
13
-15.9
-20.81
3.26
26.79
37.15
48.29
56.26
64.81
74.62
47.41
11.42
-7.36
-20.95
1.05
6.44
-73.77
-129.4
-89.82
-16.85
9.74
2.73
-0.38
-0.98
25.47
17.12
11.58
-2.55
-44.15
-6.46
7.69
-9.41
-3.73
1.74
8.08
-16.89
-21.08
-13.38
-15.11
-11.87
6.01
10.92
-10.49
-23
-19.75
-18.66
-17.35
-19.18
-0.92
8.67
6.78
-23.66
-29.26
-3.93
18.66
21.03
-15.26
-25.21
-37.94
-32.33
7.82
34.65
18.83
-22.69
-25.82
19.93
48.71
68.13
71.51
37.27
-0.23
-4.38
10.23
-2.89
-4.99
7.07
11.57
0.64
4.28
-14.61
-34
-35.87
-54.53
-10.4
33.68
50.03
51.69
46.71
6.83
-38.82
-36.9
1.46
7.87
-7.43
-14.2
-36.59
-43.67
-9.27
22.81
23.12
-12.93
-28.55
-37.75
-30.98
-21.31
-46.36
-52.67
-13.4
20.81
14.33
-5.24
-28.67
-2.23
84.13
65.62
5.47
0.33
-19.97
-26.12
-0
-7.16
0.49
22.91
24.47
28.72
30.56
35.46
28.79
30.4
27.93
24.94
29.23
9.44
0.98
8.67
-8.36
-21.69
-22.63
-17.66
-10.85
-10.68
-22.79
-27.37
-27.6
-31.36
-18.84
-17.65
-12.03
-3.75
-7.36
-14.39
21.87
8.1
-18.54
-20.76
-43.4
-19.53
26.21
28.93
35.8
26.58
21.52
-0.48
-17.15
-16.33
-8.16
6.59
-9.61
-13.38
19.3
27.65
-0.85
-32.44
-40.27
-19.43
39.16
53.14
61.21
52.17
11.97
-1.25
-23.05
-13.23
-15.49
-24.11
-14.55
-6.86
5.33
0.17
-14.84
-23.58
-30.34
-30.15
-23.62
-5.19
-23.22
-44.95
-12.63
39.59
48.96
42.67
41.44
37.65
17.83
11.22
20.17
19.98
5.31
-2.18
-27.87
-52.37
-18.2
27.08
39.71
28.43
-5.31
-22.1
-9.76
10.76
20.61
31.91
34.11
18.83
-22.73
-50.72
-25.24
-16.39
-32.64
-32.38
-13.68
-4.7
17.91
31.39
31.9
29.07
33.56
24.3
29.49
38.3
9.67
-14.13
-15.05
0.95
-3.3
-34.32
-31.5
-12.21
-34.78
-55.45
-36.99
10.16
16.34
-9.28
-19.79
14.44
42.26
24.83
3.47
4.45
19.48
-29.97
-66
-54.3
22.36
57.76
47.82
32.7
-19.23
-35.73
8.65
37.35
25.57
20.98
-10.1
-32.26
-0.84
-14.04
-56.29
-66.77
-17.31
55.86
71.01
32.57
16.01
6.54
22.97
29
4.81
-34.3
-56.24
-46.28
-33.55
-29.95
32.15
30.42
9.7
-9.49
-15.92
-2.7
-2.32
-20.18
-13.81
2.62
35.71
61.73
68.98
45.35
9.85
-10.5
-39.38
-44.03
-22.74
-14.33
-4.71
4.84
23.4
16.65
10.91
-5.54
-29.73
-23.05
7.39
-0.12
-16.36
-15.89
3.06
18.64
10
8.18
17.66
14.49
20.25
32.58
27.86
-2.05
-20.36
-15.55
-10.85
-25.31
-29.87
-9.31
-13.67
-44.25
-36.47
-32.65
-1.08
-6.25
-42.29
-41.88
-7.08
58.01
97.73
42.74
-44.91
-63.46
-25.22
5.56
-2.33
5.32
29.56
21.21
-0.26
-37.35
-11.06
22.87
-3.39
1.01
-6.59
-11.94
-14.76
-16.31
15.82
44.16
19.53
8.01
17.92
4.06
-14.03
-9.12
3.42
-10.3
-36.04
-38.83
-26.54
2.12
7.06
9.25
-24.62
-50.05
-9.95
16.88
-9.64
-20.59
16.85
49.68
51.69
21.32
-1.6
-46.86
-8.03
33.83
3.8
-64.47
-77.57
-22.19
12.36
20.94
-7.46
-14.7
18.31
49.42
77.03
75.68
63.15
48.5
14.53
-12.53
-13.52
-9.25
-18.23
-17.71
-2
6.57
12.47
28.18
16.68
1.07
2.6
-1.42
-42.18
-73.15
-47.57
1.65
-0.96
-11.26
-8.69
-9.89
10.15
1.12
-18.72
-2.97
34.79
38.41
18.41
-28.71
-12.7
29.37
29.22
14.14
5.01
-6.6
-23.62
-39.17
-43.48
-31.95
-6.27
28.7
18.94
-0.17
6.36
12
22.32
23.2
7.58
-4.06
-2.47
-22.91
-16.22
-35.7
-16.59
18.39
20.75
3.22
8.88
39.85
24.76
-6.2
-25.31
-39.63
-16.49
23.44
30.52
23.04
41.08
37.74
-21.87
-73.4
-58.88
-16.18
12.2
-6.08
-42.83
-51.84
-52.38
-2.66
21.37
24.77
36.16
30.67
30.39
37.72
35.8
34.59
22.81
-15.21
-44.87
-17.22
0.83
-6.49
-18.46
-28.07
-17.84
-31.09
-52.23
-34.51
-12.1
7.19
6.75
13.38
-0.12
-27.58
-28.18
-20.24
-21.22
8.29
-13.25
-51.93
-32.95
38.64
79.12
64.71
53.2
40.43
29.2
26.37
19.01
12.14
24.39
76.16
69.94
55.09
47.74
2.92
-5.1
-7.25
-5.96
-9.62
-11.58
-5.35
-2.2
3.12
12.28
-5.71
-39.2
-33.33
-10.52
2.27
5.06
1.71
-19.47
-22.61
-9.23
3.7
5.33
3.33
1.14
-13.35
-18.2
-22.31
-28.47
1.06
14.33
-30.33
-48.37
-29
-2.22
-2.09
4.93
49.33
22.35
-0.64
36.28
42.11
51.33
55.27
47.35
1.19
-27.45
-31.88
-50.69
-53.31
-50.05
-57.05
-72.6
-67.35
-44.58
-21.71
-13
0.18
17.35
35.97
20.61
10.9
30.11
51.83
36.83
28.79
22.5
8.5
-52.03
-91.83
-60.69
-36.61
17.68
62.79
43.81
14.56
41.99
60.87
44.87
38
29.01
36.34
3.54
-34.87
-61.73
-38.41
-34.52
-18.86
-40.91
-34.07
12.95
34.67
38.96
25.91
11.37
-6.36
-28.64
-43.97
-16.86
-4.28
-11.52
5.72
35.93
59.85
64.99
32.01
0.29
-10.12
27.48
25.03
4.91
8.44
-12.52
-35.02
-67.29
-51.5
2.31
7.69
37.14
38.87
61.94
67.17
20.17
-2.13
-12.09
-9.27
-7.05
-6.19
-1.89
9.75
21.97
32.9
26.19
-28.69
-61.47
-61.73
-83.14
-87.4
-27.16
16.48
18.89
6.23
-3.17
5.46
5.28
4.29
11.49
-17.26
3.05
0.58
3.6
10.92
-28.1
-22.75
-2.99
17.95
31.19
40.44
44.76
42.61
24.48
21.34
19
0.11
-4.33
4.99
6.88
-14.62
-40.01
-44.97
-38.12
-53.4
-41.42
7.56
27.38
22.44
-3.85
5.87
43.12
36.13
15.9
25.82
34.53
33.95
13.97
-18.24
-10.05
8.06
2.37
-36.29
-71.57
-69.2
-57.96
-47.87
-18.69
17.19
50.62
25.22
3.71
-11.05
-15.75
-2.58
-19.68
30.87
52.21
33.21
28.63
46.18
37.86
5.87
-17.32
-45.16
-52.98
-32.14
-32.81
-39.05
10.98
29.05
20.23
9.97
-12.62
-22.29
-16.58
8.54
24.13
18.1
23.65
61.53
60.34
42.22
-11.31
-45.88
-30.41
-5.74
1.9
-7.77
-18.64
-21.52
-9.01
-12.6
-20.08
-20.22
-19.99
-33.42
-9.42
9.61
25.09
50.2
21.87
-27.35
-40.73
-12.21
11.58
24.02
20.91
2.7
-10.6
-6.8
-11.27
-19.31
-30.23
-12.98
-21.65
-34.44
14.96
28.22
-17.23
-36.22
-19.54
33.11
52.46
5.44
1.46
26.9
26.37
-1.55
-18.55
-17.76
-19.18
0.4
24.52
30.83
2.29
7.64
0.04
-8.85
-9.37
-18.82
-36.52
-60.58
-38.84
46.95
44.79
10.94
12.93
21.99
10.98
-13.65
-5.18
-11.49
-25.51
-11.49
-10.96
-5.97
9.8
-13.93
-8.97
17.33
20.98
36.06
33.5
15.66
18.48
33.32
19.36
-10.8
-5.35
14.55
2.66
-12.67
-5.24
12.3
6.29
-6.27
-21.9
-34.83
-23.72
4.51
5.82
6.67
-0.81
-18.84
-51
-85.54
-107.61
-59.07
5.78
52.09
71.8
44.66
33.44
35.27
24.11
20.11
30.56
56.97
43.25
43.71
41.16
33.44
37.47
24.09
16.14
3.36
-15.12
-14.16
0.7
17.84
29.89
5.27
-6.49
-5.9
-26.84
-20
-22.11
-69.98
-67.13
-25.82
-8.32
31.74
67.52
54.46
-6.33
-40.24
-63.17
-70.9
-23.43
-6.27
-35.57
-58.04
-33.32
-0.93
7.88
9.44
32.72
64.84
60.85
47.78
25.1
-2.71
-17.58
-18.32
-16.82
-47.74
-61.09
-19.24
-0.79
-22.16
-6.06
5.63
-0.05
28.15
41.69
25.62
18.66
38.47
26.11
-32.76
-43.77
8.8
13.63
15.99
45.41
48.77
32.6
1.64
-3.19
-24.79
-75.5
-65.24
29.71
62.92
31.5
-5.04
-14.8
-18.29
2.37
24.87
14.27
18.01
22.34
17.75
3.22
-16.89
-33.6
-57.29
-71.98
-61.96
-47.91
-1.8
27.25
19.78
17.43
25.98
25.94
26.56
15.63
2.08
2.54
24.82
33.39
-2.38
-0.34
16.54
10.09
-47.02
-89.28
-62.18
-5.67
38.42
35.82
-17.84
-34.04
4.33
48.3
64.95
64.04
48.28
33.6
-7.73
-17.5
-13.12
3.94
18.93
20.16
11.12
3.6
-11.68
-29.88
-36.89
-33.26
-19.22
18.91
27.87
8.59
9.38
-27.1
-34.3
-2.16
7.52
-31.72
-35
-1.15
13.91
-27.5
-55.08
-10.13
0.92
14.19
40.04
25.81
14.04
-2.44
-10.91
16.81
32
19.98
6.61
-1.13
-9.15
-8.95
21.64
39.37
20.41
-19.27
-24.78
-10.74
-5.11
-31.78
-36
7.02
29.65
18.83
13.83
7.17
-4.56
-4.13
26.21
34.9
17.44
3.65
12.38
32.5
44.89
28.09
-2.7
-0.35
-12.48
-45.68
-52.32
-50.75
-26.97
-15.66
-8.89
-29.95
-57.62
-31.73
8.47
14.18
21.41
-0.45
-13.86
22.01
44.99
34.65
12.08
5.59
23.99
7.34
-12.64
-28.97
-29.81
14.03
22.21
8.02
0.33
18.99
15.62
4.48
8.24
-14.16
-49.69
-25.24
-2.7
-28.97
-2.07
2.47
8.7
2.97
-19.98
-20.9
-2.97
32.32
45.53
30.1
29.12
18.87
-30.43
-36.15
9.53
37.2
48.76
49.85
39.3
28.18
-8.86
-48.31
-50.18
-9.85
27.49
32.49
28.21
8.17
-11.99
-18.65
9.57
11.93
-13.53
-26.95
-18.28
-44.83
-61.7
1.5
28.47
43.22
37.26
33.43
21.41
19.32
21.68
6.4
-12.79
-35.66
-49.81
-72.1
-61.42
-23.38
11.54
27.98
15.88
0.43
-26.47
-37.44
-0.34
14.79
25.48
36.06
16.82
13.14
45.71
25.05
-24.52
-31.5
-29.77
2.45
18.5
21.88
-11.55
-92.84
-156.46
-102.63
13.34
61.45
65.3
56.24
22.74
24.2
44.48
51.19
34.61
16.1
13.31
10.91
-19.43
-30.5
-13.34
8.83
1.35
-19.52
-24.29
-20.25
-22.65
-27.54
-13.69
-27.61
-20.68
16.28
18.46
5.48
78.04
92.22
14.98
-11.11
-2.52
-45.08
-70.68
-77.52
-66.7
-22.79
6.18
1.62
-7.1
-18.55
-7.81
1.15
-19.55
-4.06
40.3
29.47
24.07
56.41
45.72
20.99
-14.86
-7.18
29.04
4.26
-37.29
-67.96
-57.35
-12.06
35.25
35.47
20.8
6.18
12.35
28.04
33.8
27.48
5.66
-27.24
-39.27
-41
-31.02
23.89
29.29
14.2
-11.49
-9.25
-10.15
4.42
22.42
25.04
-3.27
-15.58
-1.83
8.03
23.13
42.26
25.45
36.28
22.21
-3.05
-34.75
-49.17
-41.41
-16.04
-10.35
1.09
10.36
0.38
2.76
11.15
19.13
12.47
-3.55
-1.97
-8.49
-45.91
-34.93
-12.66
-31.73
-113.78
-78.76
3.93
64.86
41.34
-8.96
31.96
44.9
4.36
-0.77
-7.4
-11.63
22.47
35.77
35.18
14.92
-29
-59.85
-24.51
-13.69
4.48
14.97
11.9
2.45
-4.76
3.34
8.06
8.18
12.8
-3.39
-45.46
-44.94
-3.69
34.45
28.3
23.54
58.04
59.11
19.44
6.66
29.75
2.35
-4.3
-12.5
11.17
42.16
45.53
39.93
47.56
33.68
15.84
-36.03
-58.8
-45.31
-37.14
-8.29
25.77
15.95
-68.93
-78.86
6.27
23.56
11.81
-16.4
-55.8
-42.37
-10.14
-7.2
-13.64
4.62
15.33
28.25
5.21
-6.97
-9.78
-15.45
-22.16
-7.71
-20.03
-24.74
-5.22
5.26
41.59
39.36
-18.64
-73.5
-81.21
-34.28
20.79
41.56
47.7
50.8
45.43
32.08
6.41
-2.76
-15.69
-8.52
26.51
25.6
19.06
39.77
41.26
25.02
11.92
8.02
-61.16
-104.65
-50.52
-11.21
-3.23
4.71
5.73
-20.56
-50.15
-6.77
40.48
47.08
41.74
32.28
19.38
17.12
30.43
32.16
32.93
25.97
15.96
-14.74
-41.48
-53.06
-52.04
-52.26
1.85
2.94
-24.37
-60.56
-54.96
-28.74
5.78
20.72
31.21
29.72
22.26
9.6
4.84
10.1
18.94
12.17
9.38
12.46
-12.11
-17.51
0.69
19.67
8.08
-3.53
-46.66
-29.39
40.56
38.27
15.02
19.66
37.5
39.07
44.41
42.59
18.26
-36.22
-67.34
-47.89
-25.52
-9.95
11.94
2.54
-8.82
19.25
37.69
22.81
5.62
-22.29
-86.83
-53.06
21.69
1.67
-25.23
14.49
46.03
45.75
23.6
-7.78
-14.33
0.01
-31.73
-76.97
-68.58
-41.87
-7.72
2.21
5.92
23.72
18.8
30.1
34.64
-19.14
-42.59
-13.21
8.13
-8.79
9.04
19
-1.69
-8.37
-4.49
17.3
23
4.03
-1.46
-5.26
-8.93
0.28
32.71
58.54
52.29
6.5
-6.04
-15.29
4.21
5.46
-22.78
-50.94
-87.8
-67.66
-17.98
25.25
49.5
38.74
40.83
42.42
48.08
50.28
51.45
34.99
6.91
-12.51
-11.06
-6.15
-26.65
-61.24
-80.3
-52.65
14.24
45.2
10.19
-27.1
-61.77
-83.76
-70.62
24.1
93.09
57
19.44
15.09
16.24
8.57
8.29
24.07
47.67
47.42
21.66
-0.09
-11.85
-8.02
-12.46
-14.78
-9.53
-9.02
-4.08
6.16
6.33
15.13
-3.88
-57.36
-66.36
-21.88
-5.97
9.62
17.01
-3.24
-1.1
9.31
6.06
-25.07
-25.03
-4.94
-9.53
9.94
25.92
24.39
-8.42
-63.11
-25.79
31.53
25.78
2.52
-38.93
-78.72
-36.85
7.18
28.55
-5.05
-2.7
19.95
29.82
17.72
28.85
51.04
36.86
10.38
-19.27
-20.94
8.36
-2.43
14.85
33.86
34.77
15.91
14.63
13.89
-1.92
-18.05
26.61
30.58
-36
-73.58
-45.22
-26.26
-7.43
-19.33
-52.64
-39.8
-3.83
10.26
-3.36
-12.85
-31.36
-43.61
-14.51
23.91
23.4
27.7
34.9
37.22
30.05
10.02
-13.18
12.66
26.88
-22.74
-33.27
-36.69
-25.49
41.08
70.8
45.92
14.48
-13.18
-38.54
-63.81
-47.36
8.01
10.73
-17.66
-18.01
31.38
44.77
46.24
26.45
-17.42
-58.41
-4.43
61.92
51.12
6.2
-7.39
34.81
48.47
43.23
37.27
20.71
-14.43
-39
-43.04
-65.67
-65.63
-4.31
30.84
29.44
26.34
27.46
8.65
2.09
3.92
7.22
10.19
4.33
-8.38
-18.71
-4.71
3.9
9.98
16.32
7.05
-19.75
-33.75
-38.35
-19.59
-18.12
-24.94
-24.22
-2.88
20.37
38.76
19.56
-7.11
-6.19
-26.89
1.17
48.57
46.29
12.92
-14.8
-35.7
-78.75
-110.49
-50.59
27.69
62.51
8.03
-25.75
3.61
33.15
33.76
17.07
-1.59
38.9
55.78
25.76
-9.7
-28.49
-71.78
-102.47
-37.16
13.08
-7.98
26.38
72.5
61.23
27.15
9.39
-6.86
-3.21
7.94
6.56
6.73
-1.49
-12.88
-1.2
10.76
15.37
32.84
27.25
-9.14
-38.95
-20.19
-5.56
-7.7
-19.02
-24.45
6.68
34.61
25.19
22.81
31.73
14.19
-18.81
10.78
59.53
50.67
27.93
68.92
78.29
58.15
-3.44
-18.11
-25.52
-35.71
-32.99
-40.37
-83.73
-123.66
-83.84
23.75
62.12
16.89
-18.6
10.09
15.37
-0.72
-9.56
-9.59
-12.31
-15.01
-13.04
-3.21
9.36
-9.62
-21.99
-6.2
22.42
38.31
10.38
-32.2
-80.62
-99.55
-39.24
23.38
31.36
33.69
32.45
25
13
22.78
25.19
17.22
8.12
-4.02
-19.47
-27.59
-9.62
-0.94
9.46
19.95
10.86
-5.67
23.96
17.37
5.19
-50.81
-112.87
-102.15
-47.05
27.98
61.72
46.61
44.2
21.55
-32.07
-24.5
26.24
37.16
27.55
1.9
-16.95
-9.58
2.1
19.49
30.49
22.99
5.1
-37.68
-48.56
-23.39
-50.76
-68.45
-46.39
21.77
32.07
-28.48
-23.76
37.18
63.67
33.1
-20.92
-30.1
-6.58
9.91
8.06
-6.71
6.78
36.54
15.53
-17.09
-25.84
-2.61
30.38
23.02
-5.48
-38.66
-72.8
-6.7
59.52
52.54
45.69
16.77
-20.24
-28.69
-33.85
-9.92
8.13
19.8
34.15
39.81
26.03
21.36
14.47
14.02
3.61
5.7
28.52
37.39
9.5
-16.22
-9.58
11.02
-7.29
-7.23
-7.06
-31.7
-73.37
-67.17
-9.77
16.76
15.34
19.34
32.37
21.88
11.84
20.79
22.04
-38.92
-93.5
-58.18
1.72
11.35
-13.66
-0.41
19.28
26.83
36.16
28.63
-16.78
-35.59
-16.7
-34.19
-22.81
23.26
28.41
29.27
6.96
-18.38
-13.49
12.58
14.06
11.43
27.34
23.05
-21.73
-38.24
-42.4
-42.12
-46.56
-5.87
23.15
19.76
-10.35
-10.95
19.63
33.24
-29.36
-74.53
-24.09
40.12
23.52
-21.12
-32.63
-1.12
18.83
24.75
28.52
33.64
36.35
20.55
-37.46
1.18
48.98
40.29
15.94
4.68
6.1
9.1
7.74
-13.52
-45.66
-68.22
-77.87
-35.27
32.27
38.85
-6.04
-5.4
3.23
23.72
46.57
44.11
27.87
0.91
-17.16
-29.05
-59.13
-55.89
12.26
52.46
45.7
17.96
-6.48
11.76
49.86
54
30.49
12.41
0.89
-2.34
-37.27
-48.49
-55.72
-79.93
-73.57
-22.22
16.43
44.2
31.99
24.4
31.69
31.74
-5.79
-28.58
-19.16
-6.3
6.03
7.65
8.17
17.35
1.43
-12.08
6.04
9.01
5.48
11.35
0.6
-8.72
-15.45
-11.8
-8.41
-10.49
-11.55
2.89
27.06
19.09
-12.45
-5.82
-10.08
-53.22
-72.27
-89.86
-48.49
36.45
57.03
55.32
45.16
10.74
-40.32
-18.88
59.19
53.57
45.52
30.73
-16.64
-50.78
-70.19
-66.79
-41.91
-20.51
5.22
29.63
-0.67
-11.34
-2.21
19.66
19.35
43.91
54.78
16.74
-8.63
-15.3
-34.41
-30.08
-7.37
23.75
21.33
19.68
15.36
28.13
30.59
32.79
9.51
-24.38
-61.05
-64.32
-60.02
-54.05
-33.01
-6.41
13.24
2.73
-4.84
-23.05
-16.8
-25.31
-38.77
-3.52
45.29
63.55
31.26
8.38
24.17
2.83
19.71
34.63
8.27
-2.03
-5.81
-37.21
-46.66
-55.94
-49.54
-21.61
7.7
39.56
26.77
14.77
35.34
44.95
17.75
-13.02
-6.21
14.91
27.35
28.95
12.85
-8.8
-21.96
-30.22
-44.76
-59.33
-62.39
-28.64
-17.52
-31.12
-49.27
2.83
23.62
8.9
-2.45
14.93
45.24
30.25
24.2
55.31
53.33
45.49
32.06
-15.15
-37.35
-39.32
-36.3
-16.99
2.4
-28.44
-18.21
-5.54
-34.99
-76.97
-49.08
32.14
60.04
35.27
3.31
-7.18
2.63
64.16
80.11
25.24
-9.07
-6.18
21.67
29.66
11.26
6.4
-0.36
-14.01
6.03
21.87
15.35
-0.04
-16.99
-23.66
-39.38
-38.82
-49.03
-24.81
-4.65
-19
-18.58
12.24
8.87
-40.56
-62.29
-23.49
-0.26
13.17
32.64
52.78
50
17.96
-14.31
-36.37
-6.59
23.38
24.88
25.12
20.03
27.62
22.86
-8.81
-29.52
-29.85
-39.73
-49.9
-45.1
-16.39
-41.62
-28.2
-25.46
-2.77
37.32
44.44
56.17
58.93
36.88
43.55
47.74
39.85
26.18
10.67
-0.84
-19.04
-47.07
-64.08
-63.84
-52.85
-46.75
-42
-3.56
12.61
29.24
29.31
-5.13
-22.99
-35.33
-22.4
13.74
10.86
-3.32
-41.98
-90.74
-34.4
22.99
33.93
10.5
14.91
35.75
33.59
22.19
20.96
17.92
18.15
18.75
18.32
37.09
28.13
-21.03
-66.07
-75.72
-58.41
-29.81
9.69
27.85
26.97
16.5
-5.5
2.78
18.55
5.19
-2.27
-13.28
-0
3.55
42.39
49.75
-5.23
-45.33
-49.66
-35.34
6.01
22.34
8.68
4.21
-10.51
-14.81
-14.64
-35.95
-43.38
25.15
47.04
12.51
-1.62
-11.58
-14.28
-7.55
-4.55
-0.63
-24.24
0.26
4.95
1.38
30.12
42.71
26.42
-5.03
-25.97
-51.5
-34.18
-2.87
15.71
41.51
25.34
-17.8
-26.11
-22.69
-9.92
3.24
10.19
20.16
33.27
42.86
38.04
39.83
28.41
5.34
-14.62
-17.52
-22.44
-20.74
-5.49
7.68
-17.43
-61.88
-76.61
-44.79
-44.01
-32.07
31
60.63
48.26
29.81
25.81
25.51
15.14
4.96
-24.89
-19.24
-27.6
-61.56
-14.5
26.48
14.6
-3.75
15.79
39.17
36.3
6.1
-4.67
4.16
9.64
9.63
21.66
15.55
-41.06
-84.56
-71.7
-37.03
-4.93
-8.22
-12.21
4.54
-6.91
-19.12
-27.21
-38.92
-51.85
-13.9
8.62
27.14
60.21
58.08
59.7
49.11
16.16
11.35
18.38
20.77
8.93
-41.67
-52.7
1.71
33.59
24.01
26.57
43.84
36.04
16.35
10.57
21.08
12.43
-15.07
-52.97
-43.15
0.35
-15.05
-25.28
-29.35
-48.92
-41.4
8.69
29.41
20.5
-3.34
-36.12
-6.56
25.25
29.33
44.09
9.06
-16.16
-5.91
-31.21
-37.89
-13.77
9.05
8.56
-4.33
-17.98
-32.23
-33.98
-8.43
8.85
-16.41
-27.17
-54.58
-58.81
-21.87
-10.77
2.63
35.44
74.11
94.39
83.97
44.77
-19.41
-14.52
19.1
4.8
-20.59
-9.09
-30.83
-42.05
6.66
37.54
16
-10.09
5.78
42.92
36.88
38.65
40.59
-0.07
-26.24
-22.71
-23.76
-14.42
-6.1
-44.25
-97.96
-94.02
-47.47
3.34
19.82
22.84
6.79
-20.65
26.81
55.37
53.26
66.46
51.97
31.33
1.66
-3.17
-7.5
-37.05
-33.62
-15.63
10.91
11.64
-57.13
-97
-60.64
-16.86
29.67
52.65
74.97
68.99
23.01
-10.72
-10.09
42.63
64.61
7.54
-45.31
-28.84
-24.45
-42.56
-57
-44.93
-0.96
13.06
-13.95
-16.58
-16.42
-14.12
-17.31
0.5
53.21
83.96
68.99
35.04
10.96
-3.55
2.94
-6.11
-14.93
-45.83
-72.13
-35.34
-3.88
19.52
28.41
2.12
-16.99
-3.03
18.63
12.42
2.6
10.27
-5.61
-17.99
9.42
18.33
1.38
-4.7
-37.71
-53.85
-18.85
3.16
3.9
11.13
-19.7
-48.97
2.27
29.99
44.48
16.12
-18.84
-28.14
16.04
42.79
33.96
11.63
41.51
24.81
-46.41
-56.14
-30.1
13.88
1.18
9.96
2.19
-22.62
-20.6
6.58
33.37
27.42
5.66
10.59
2.06
11.17
10.59
-16.51
-15.92
14.47
31.42
51.1
31.5
-24.9
-68.14
-71.64
-20.88
15.66
28.39
18.17
2.8
-1.85
2.55
-27.17
-66.92
-66.44
-30.51
-60.47
-91.94
-33.65
77.15
78.79
36.77
32.3
42.96
50.24
40.45
22.67
20.13
15.05
4.08
1.63
-8.59
-16.24
-8.16
-15.97
-14.1
-14.9
25.12
47.64
27.8
22.5
22.13
26.38
24.89
21.93
28.31
33.1
39.91
42.24
21.33
-8.7
-55.58
-62.95
-27.13
9.34
8.74
9.91
-22.9
-86.7
-104.29
-20.87
72.93
66.82
28.84
19.81
25.64
5.51
-23.4
-20.62
-11.33
-21.21
-37.41
-25.53
-25.64
-84.91
-117.38
-72.46
-14.47
7.51
37.13
47.57
23.52
10.48
5.76
13.82
23.2
1.66
-4.42
-11.36
-53.97
-35.3
-13.63
5.88
-1.37
-14.17
-40.36
-20.4
28.53
40.55
38.94
35.68
36.48
14.02
-7.32
0.01
8.92
0.15
-11.8
6.01
-20.62
-48.71
-56.38
-96.06
-123.17
-78.48
-5.48
41.92
76.28
96.92
85.48
72.86
62.45
40.56
23.53
10.23
7.9
0.92
-4.83
-8.6
-12.07
-18.78
-26.75
-21.78
-15.25
-5.56
-1.21
-26.36
-46.89
-61.27
-17.3
35.59
47.86
52.8
41.55
30.73
24.41
24.08
-0.29
-36.23
-40.53
-28
-28.09
-23.49
1.85
17.58
-4.48
7.21
51.06
59.17
27.49
-20.1
-22.41
-1.25
-5.86
-7.06
-19.18
-38.18
-26.26
-31.52
-53.02
-25.5
-0.18
16.03
30.84
27.59
3.85
8.73
32.34
25.29
1.17
1.98
12.54
1.6
-40.99
-84.82
-104.09
-88.85
-56.26
-10.02
56.34
85.09
60.15
29.85
4.32
8.53
11.5
15.08
12.96
23.28
53.6
51.82
32.59
22.39
43.91
30.44
1.46
-24.27
-25.55
-23.74
-30.33
-12.28
-4.75
-12.1
-11.49
-9.54
-2.78
7.5
-3.14
-61.66
-87.31
-56.28
30.2
61.72
33.46
-2.71
-1.15
1.06
-25.59
-15.12
-2.63
16.29
13.9
13.93
27.21
24.4
-7.2
-21.17
-4.82
10.68
13.94
3.92
-36.48
-95.69
-59.05
20.48
44.93
18.18
-13.31
-5.31
25.95
40.94
24.81
3.04
-44.86
-77.49
-117.23
-60.3
40.09
85.01
91.9
88.04
78.46
59.26
19.43
-26.01
-4.69
50.16
41.3
1.74
-43.34
-77.98
-64.4
-44.19
-15.88
11.16
15.08
7.89
6.87
6.33
13.46
18.78
-37.78
-61.61
-14.5
37.92
26.93
2.78
-12.5
-35.65
-58.86
-23.26
24.09
38.73
18.59
-13.23
-28.15
2.36
39.73
56.54
36.96
23.54
3.92
-17.53
-19.68
11.22
24.19
-5.59
-19.58
-17.42
-29.33
-42.9
-47.7
-48.79
-29.69
-22.95
-34.23
4.34
-36.39
-95.98
-31.68
74.12
122.99
115.78
72.83
60.09
55.79
-23.46
-90.48
-66.99
-0.67
21.76
32.21
19.64
21.2
49.96
48.7
11.21
-57.14
-93.29
-39.23
46.85
51.65
24.73
-21.12
-82.42
-63.42
-31.09
25.46
51.09
34.17
25.66
26.37
16.61
10.21
-4.32
-23.4
-10.72
12.25
16.96
4.73
-9.07
-21.35
-25.24
-5.44
21.85
31.55
-12.14
-28.11
21.91
41.08
4.59
-22.41
-22.12
-14.9
-12.17
-40.49
-35.96
-14.86
-5.38
4.74
-3.13
24.52
8.54
-19.52
-47.91
-29
38.42
57.46
42.22
45.27
51.43
18.83
-32.34
-45.08
-21.4
-2.64
6.25
6.55
-7.6
-15.83
-31
-25.1
-35.46
-88.78
-108.04
-29.48
55.95
82.01
81.83
72.79
55.43
32.48
14.27
-17.63
-45.09
-59.58
-56.08
-48.67
-44.71
10.1
41.13
26.35
0.23
-21.56
0
16.83
3.43
15.23
30.8
24.03
-28.85
-116.93
-112.45
-44.3
0.96
62.93
47.85
20.09
32.18
47.09
32.69
-0.26
-4.45
25.5
45.36
40.36
33.37
21.12
7.52
-6.4
-25.55
-25.13
-15.29
-11.7
-5.87
21.91
29.19
18.68
1.08
10.59
5.26
-15.11
-19.94
-27.5
-47.08
-39.41
-1.84
13.77
-30.06
-85.3
-98.97
-103.11
-34.34
49.16
45.59
20.98
26.2
43.11
47.06
28.92
-8.17
-12.79
23.42
39.52
12.64
-10.74
0.37
17.01
15.56
2.42
-0.61
23.94
8.58
-15.58
-27.1
-16.88
-4.92
-2.22
-1.93
-19.65
-59.07
-68.59
-43.63
-83.53
-73.16
57.45
93.84
63.79
57.29
68.12
49.7
1.32
-30.56
-21.25
1.99
2.08
-8.7
-25.22
-48.51
-38.49
-3.86
3.99
0.53
22.28
16.18
-30.41
-47.57
-28.7
1.82
43.68
43.93
33.38
16.07
-7.91
-15.16
-15.47
8.05
-9.63
-32.27
-43.65
-50.1
-27.95
12.52
47.98
44.93
22.8
-17.39
-44.87
-29.84
-42.48
-29.46
8.68
29.1
51.4
47.08
22.54
12.88
-7.98
-4.3
8.79
10.9
-8.98
-45.47
-66.67
-73.68
16.05
86.97
59.56
-9.05
-86.52
-109.08
-61.23
4.81
48.19
53.87
22.73
29.86
29.99
15.73
-35.08
-37.52
23.36
57.3
53.24
41.96
24.46
2.68
2.96
-9.61
-24.24
-42.24
-48.2
-42.56
-44.47
-35.22
-16.27
3.55
32.83
13.5
7.81
9.71
11.83
4.41
-6.46
-10.61
-10.33
4.22
23.23
23.88
28.61
30.06
7.82
-9.51
5.92
26.05
5.93
5.12
31.83
13.18
-36.52
-66.8
-80.94
-69.5
-32.6
-38.32
-71.36
-33.1
32.01
72.99
72.6
64.31
38.13
-7.18
-19.85
8.34
12.47
1.24
-23.68
-55.19
-87.77
-51.89
0.61
46.94
35.98
21.98
32.37
40.64
30.23
16.75
3.91
-6.72
-15.66
-3.24
24.29
52.76
46.39
1.64
-25.84
-41.91
-47.56
-45.22
-38.33
-16.61
15.94
27.11
27.43
12.51
8.77
6.96
-12.3
3.52
16.07
19.81
26.95
29.46
0.78
-25.3
-8.89
14.15
20.88
0.25
-7.71
-30.49
-75.29
-84.62
-72.74
-28.17
37.29
40.81
40.97
29.62
-42.32
-116.99
-65.73
37.37
80.51
85.81
72.83
36.83
24.09
2.05
-29.95
-54.11
-48.18
-8.86
12.54
14.61
16.17
2.35
-15.27
-3.63
13.79
9.37
-5.8
7.42
41.97
32.74
-1.43
5.09
27.27
20.36
-9.71
-40.71
-39.6
-40.19
-16.35
10.26
-22.29
-105.4
-100.89
-60.41
-56.36
-13.84
36.88
52.05
53.09
44.81
7.83
-7.07
16.74
31.98
36.29
28.22
-7.36
-37.5
-18.51
11.36
29.22
22.43
-20.06
-22.82
-15.37
-9.63
-10.98
16.96
36.51
16.33
24.91
38.04
36.13
34.73
23.01
7.52
-41.89
-50.43
-16.53
-1.66
-43.01
-54.78
-32.81
5.19
31.36
-0.86
-17.7
5.67
62.29
59.34
20.35
-5.61
1.55
4.81
5.42
8.13
-1.14
-6.11
-5.59
-6.81
-1.34
-8.31
-29.05
-54.17
-32.49
-5.54
-13.63
24.44
41.95
-30.01
-72.25
-32.29
-26.35
-39.88
22.38
53.73
34.32
23.69
11.33
5.76
4.07
2.61
-0.04
11.35
17.99
17.88
10.13
1.83
12.25
14.35
-5.68
-1.3
-70.02
-127.53
-36.15
27.7
9.87
-19.48
-13.81
10.1
-0.71
2.19
7.53
16.25
29.49
36.46
36.4
37.16
35.42
35.03
35.42
7.17
-21.76
-10.66
-6.44
-24.95
-26.8
-11.05
-16.51
-30.75
-44.66
-34.75
-18.26
5.4
32.76
37.28
23.52
18.89
15.97
17.62
18.54
13.85
4.37
0.41
-0.99
-28.65
-65.14
-64.53
-40.18
-32.21
-24.73
16.22
29.67
17.64
11.8
13.56
15.64
14.43
13.31
14.42
7.83
12.14
16.03
8.92
-5.5
-20.22
-29.71
-33.99
-24.1
-11.62
-2.1
6.42
8.45
7.34
12.08
11.99
12.32
10.96
9.11
8.48
2.13
-2.93
-6.95
-7.35
-8.14
-7.55
-11.35
-10.82
-7.15
-3.98
-3.4
0.94
3.83
7.83
9.38
8.75
9.21
9.98
6.3
3.65
-0.33
-2.57
-5.03
-9.32
-9.7
-13.03
-15.68
-14.36
-9.75
-6.82
-3.86
1.34
0.76
4.55
8.53
11.82
9.26
8.36
7.19
7.11
4.03
-1.07
-1.54
-1.69
-3.18
-5.1
-10.07
-10.89
-9.91
-8.71
-7.7
-4.1
3.66
6.71
9
11.56
13.27
10.17
6.47
-0.52
-3.25
-6.01
-7.24
-2.21
-2.33
-5.55
-7.85
-7.14
-6.54
-7.07
-3.99
-4.04
-2.21
0.67
4.79
6.96
7.24
4.61
5.99
7.14
10.07
8.55
0.71
-3.35
-1.21
-3.85
-8.38
-8.29
-7.98
-9.16
-21.75
-23.54
-0.48
11.8
12.26
12.28
12.24
11.64
14.45
14.12
-1.21
-9.56
-4.9
-1.7
-3.09
-5.07
-11.04
-11.83
-14.49
-4.71
-1.1
-4.79
-6.41
-0.97
7.68
12.54
13.53
18.03
20.68
23.02
21.22
19.64
16.55
8.63
2.75
0.27
-0.36
-4.28
-13.59
-17.63
-14.61
-10.6
-9.1
-3.87
0.13
0.86
1
1.22
0.19
1.12
-0.47
-2.52
-3.92
-9.42
-15.56
-16.05
-15.9
-17.89
-18.66
-19.12
-19.77
-16.53
-9.35
-2.19
0.37
2.56
5.69
8.13
6.6
2.05
6.09
6.91
5.6
-2.49
-6.2
-6.57
-7.22
-13.82
-32.68
-41.46
-32.02
-17.95
-14.69
-13.12
-15.8
-27.27
-19.98
4.22
4.36
2.47
20.39
30.37
28.44
26.26
15.79
-3.01
-19.45
-31.51
-32.59
-26.16
-5.79
0.69
-0.42
-0.39
-2.32
-4.18
0.96
-9.13
-27.39
-17.37
-9.2
-5.88
0.04
-2.08
2.68
7.87
-23.87
-35.13
-26.62
-7.31
-1.98
5.53
21.42
24.56
5.78
-5.48
4.18
9.66
2.06
4.93
19.35
35.26
38.23
30.93
21.35
10.27
4.68
2.26
-0.66
-3.37
-7.11
-5.16
-1.66
-1.93
-2.72
-1.08
5.63
8.97
10.34
10.16
9.06
7.41
9.13
6.23
-1.8
-0.45
-1.7
-2.85
-11.91
-27.82
-41.11
-37.31
-19.99
-3.24
8.05
8.06
2.13
5.6
12.43
9.63
6.72
6.18
9.32
5.74
1.34
-1.97
-5.94
-11.63
-12.72
-11.54
-7.14
-7.89
-2.86
7.6
5.81
-2.25
1.19
2.71
0.47
0.04
4.42
9.36
16.08
18.2
14.59
9.17
0.58
-8.47
-14.92
-13.31
-8.68
-3.6
-19.45
-36.15
-37.37
-32.27
-9.82
4.65
11.22
12.8
10.31
3.32
13.28
30.51
28.16
22.6
6.17
-15.3
-36.15
-28.73
-9.31
-14.66
-35.27
-41.18
-18.77
-3.15
7.23
16.29
6.83
-8.88
-15.55
-5.34
23.74
35.92
12.28
-8.45
-1.65
9.46
14.07
13.18
2.73
-5.02
-8.21
-9.17
-6.43
6.06
10.04
13.7
16.15
14.86
11.09
10.48
10.86
11.09
7.04
8.21
7.15
8.07
4.39
-5.57
-18.19
-41.79
-48.68
-27.09
-37.07
-37.19
-19.96
5.87
37.54
25.79
5.94
11.2
27.96
37.02
36.83
31.55
17.26
-10.93
-30.8
-22.67
-9.71
-2.43
2.32
-1.76
3.25
3.77
7.19
8.08
6.92
3.74
9.41
12.19
-0.76
-13.19
19.6
45.08
42.73
16.85
-15.2
-27.25
-12.95
-0.08
8.2
7.7
-8.04
-22.84
-17.64
-7.75
-2.79
1.78
0.57
2.07
-3.34
9.57
16.19
13.01
8.91
-9.12
-33.01
-22.48
7.6
15.1
1.76
-26.81
-25.34
10.83
21.74
-0.77
-3.88
-9.26
-16.13
-1.28
-20.86
-42.12
-54.81
-46.99
10.34
32.41
23.1
7.97
7.28
0.44
-25.06
-20.9
-14.34
-21.46
-19.3
-10.66
-3.84
-3.5
-0.97
-1.36
-23.15
-11.12
6.19
12.71
27.86
31.57
28.28
-4.49
-67.56
-73.34
-27.51
23.88
41.89
20.46
16.13
8.07
3.15
6.29
-12.17
-7.19
9.03
14.21
24.75
-0.6
-16.16
-9.46
5.49
31.13
30.78
4.99
-11.39
-13.92
-0.86
3.36
-3.11
-41.66
-81.38
-83.02
-40.42
-57.42
-84.59
-31.9
33.69
50.17
31.14
27.2
42.62
42.43
45.65
25.71
-7.15
-41.12
-67.69
-80.14
-83.27
-35.03
35.92
48.69
46.87
53.05
37.48
50.92
42.63
12.95
-0.08
10.24
-17.12
-45.2
-10.15
-9.4
-50.08
-45.39
-8.58
14.74
22.89
12.38
-27.83
-71.63
-46.21
22.76
49.12
70.39
48.04
16.07
7.29
12.96
18.46
11.37
12.14
21.23
-4.71
-33.82
-35.2
-15.41
30.33
44.64
-2.89
-61.65
-50.95
-25.29
3.49
28.53
6.7
-28.59
-56.5
-41.07
20.94
56.37
54.09
16.04
-30.68
-56.76
-50.16
-8.58
25.85
0.08
-20.4
-10.19
6.5
-6.41
-37.29
6.98
46.32
45.74
35.8
11.46
-65.53
-86.37
-4.31
57.9
63.01
26.43
-1.21
-22.6
-27.98
-2.1
1.9
2.08
6.99
7.71
-10.82
-61.44
-86
-57.7
-7.81
-20.86
-57.26
-14.98
16.39
-7.22
-4
51.58
74.37
68.06
43.8
6.98
-28.97
-48.51
-36.73
-25.08
-39.55
-24.93
0.21
19.39
2.29
-17.55
-18.94
0.58
21.7
24.15
18.59
-13.34
-31.28
-53.36
-42.54
10.53
43.19
64.61
26.29
-27.59
-18.58
27.69
70.28
104.4
87.91
33.97
-0.22
13.27
15.81
31.24
35.1
19.99
-10.63
-47.63
-39.64
-13.21
-9.05
-21.72
-22.1
-53.61
-17.24
46.05
19.08
0.21
-27.49
-89
-114.84
-45.9
30.19
86.93
90.12
28.14
-35.57
-86.62
-102.65
-26.22
80.52
80.94
32.58
-20.22
23.76
43.17
9.09
-5.63
18.54
29.03
4.9
-20.01
-39.43
-55.49
-47.88
-32.2
-42.28
-19.46
-8.82
-1.27
16.53
35.52
-3.58
-58.82
-83.11
-35.01
40.37
58.66
67.67
45.87
14.23
5.69
24.16
39.18
47.31
43.31
1.5
-59.57
-68.79
-28.3
-13.59
15.33
31.31
6.65
-17.22
-22.45
-19.04
1.32
9.06
8.87
14.13
21.04
-4.14
-75.62
-144.4
-134.35
-69.95
-55.31
-26.43
10.93
76.62
97.04
36.79
24.56
13.78
-37.05
-72.57
-52
32.28
-4.52
-95.03
-65.84
49.81
120.7
69.06
55.44
59.35
49.11
32.14
8.27
-41.76
-70.31
-53.02
12.49
74.87
55.62
7.84
-6.52
-25.46
-12.56
-47.89
-92.29
-89.21
-17.91
16.38
73.8
97.83
85.17
60.92
34.6
12.12
-1.88
-59.37
-78.4
-31.48
32.65
57.68
16.75
-18.94
-29.19
1.95
2.67
-23.68
-6.05
38.61
62.21
41.07
10.47
17.28
46.89
38.5
5.02
-12.89
-4.07
-8.81
-10.97
-46.69
-51.77
-5.36
3.11
-18.12
-62.95
-68.27
-17.55
67.17
106.92
63.1
42.72
36.31
8.09
-20.14
-22.29
-48.54
-94.22
-81.67
-25.26
10.66
-66.37
-147.75
-82.61
67.86
97.64
71.02
42.87
56.24
63.88
53.46
0
-62.53
-10.56
56.45
55.33
13.56
-6.22
-10.43
-7.76
-37.24
-148.25
-208.45
-93.65
39.5
115.74
113.69
62.86
34.06
45.61
44.63
17.73
13.92
33.34
7.19
-69.53
-63.19
-1.44
45.92
13.75
-18.74
26.43
-3.88
-44.45
-27.11
5.54
0.37
-49.46
-64.68
-51.02
-43.54
-43.93
-55.7
-66.15
2.16
20.76
-6.24
-59.51
47.49
126.41
74.01
32.01
-14.19
-24.71
-10.69
-59.42
-93.16
-24.32
20.26
58.26
86.3
67.81
35.2
39.11
59.19
19.15
-14.66
-2.89
42.53
69.31
42.24
-52.76
-157.84
-137.88
31.46
70.61
4.12
-59.62
-37.37
22.8
36.67
32.73
38.99
42.11
49.89
39.3
3.49
-27.38
-52.52
-89.84
-93.42
-43.86
-29.2
-38.31
-21.79
15.62
8.1
20.71
-4.86
-82.77
-78.41
-21.62
53.9
78.95
53.96
29.67
31.08
13.12
-12.26
-19.99
-32.31
-62.53
-48.43
-27.35
-28.17
-45.3
-53.47
-77.19
-24.61
37.09
88.42
95.05
72.85
42.51
23.29
42.33
34.56
-8.59
-37.03
-56.67
-83.8
-112.97
-126.73
-55.29
92.32
92.14
7.7
-51.51
-43.76
-13.78
-24.05
-79.37
-87.26
-31.39
28.17
97.31
82.91
15.8
-13.51
-7.48
7.85
14.28
32.88
51.96
55.29
34.03
-14.76
-7.37
-43.4
-98.47
-113.91
-110.94
-79.32
-14.71
-0.06
33.08
25.45
20.21
16.47
-4.92
1.51
24.22
20.77
15.28
20.97
23.08
11.82
18.56
46.24
51.43
-1.1
-75.66
-53.67
-33.39
-68.27
-108.09
-50.15
34.8
30.06
-56.9
-113.1
-36.74
50.46
49.33
31.36
-19.32
-40.23
-17.33
19.49
38.31
73.14
48.09
15.16
18.66
13.39
-0.19
-37.36
-58.8
-47.48
-7.91
17.27
-13.86
-66.21
-110.63
-112.15
-10.76
68.49
82.16
10.27
-24.25
11.34
22.23
52.16
102.64
102.01
37.65
8.59
-16.64
-101.69
-193.26
-115.17
10.31
53.1
64.64
71.29
109.7
95.77
82.08
38.07
-44.63
-92.12
-71.89
37.33
78.8
29.75
21.58
32.86
18.51
22.12
18.01
-13.24
-47.5
-81.94
-115.07
-188.03
-135.4
21.97
74.37
37.32
-4.1
-3.68
19.58
24.29
38.47
11.06
-18.01
-58.78
-79.93
-64.53
-28.47
-40.23
-33.2
41.35
75.46
54.15
26.48
-5.71
-58.63
-84.6
13.17
59.57
22.24
-36.18
-84.1
-79.51
-27.47
38.87
34.07
3.32
-1.02
-7.37
-76.34
-83.19
35.15
154.89
104.06
-10.22
-41.95
-66.01
-157.9
-127.22
44.9
107.09
101.93
64.28
14.77
15.03
71.02
45.76
-8.61
-14.59
10.09
-2.4
-22
-38.14
-43.72
-71.78
-45.32
-6.61
-30.42
-51.78
-9.01
43.31
106.51
88.51
71.86
50.75
25.54
13.06
22.16
7.33
-8.42
-22.57
9.7
0.06
-11.27
16.55
12.01
-65.73
-123.52
-136.01
-126.36
-67.07
30.3
62.67
42.29
22.18
9.53
-28.19
-18.61
29.57
57.28
9.44
-61.13
-58.57
19.62
25.44
-1.77
8.58
-8.44
-56.51
-40.63
28.02
47.89
21.5
16.45
-10.51
-36.19
23.46
116.1
110.73
83.28
52.08
14.08
-24.71
-105.94
-129.99
-90.93
-84.01
-55.14
-4.26
-22.42
-50.97
-92.01
-91.02
-27.76
89.69
148.53
143.14
56.17
-43.88
-94.96
-34.39
60.11
80.44
61.51
52.44
56.64
5.44
-90.76
-153.4
-73.9
22.45
-1.67
11.96
9.02
3.82
27.3
85.19
104.89
102.04
89.79
28.65
-8.88
-57.28
-151.78
-98.3
1.25
32.93
15.31
-5.62
-1.25
16.98
13.44
3.53
12.92
29.09
42.79
47.81
6.81
-48.44
-108.25
-153.39
-147.29
-16.25
64.85
78.42
85.79
35.07
-45.34
-60.19
-24.92
5.43
-11.43
-25.15
-52.15
-39.24
5.29
12.79
-15.52
-44.43
-94.28
-205.97
-184.64
63.5
222.7
198.02
113.2
28.65
13.29
20.99
39.56
26.02
3.03
6.88
22.54
14.92
0.58
11.56
-3.69
-33.83
-11.89
4.59
-20.26
-96.26
-105.15
-46.59
18.48
24.27
38.73
26.66
-36.27
-19.85
4.38
-5.61
-10.17
-6.84
63.01
64.42
32.54
56.63
34.78
-34.43
-69.87
-29.63
38.26
55.67
-3.2
-28.31
10.19
41.09
33.34
-3.67
-99.46
-202.92
-218.23
-79.47
32.48
54.42
45.84
2.68
69.81
154.61
120.44
62.11
54.52
54.45
43.58
11.55
-26.4
-45.05
-9.55
-10.13
-61.76
-25.55
-4.23
-12.51
-0.42
-17.62
-108.97
-173.17
-63.27
48.48
59.37
-1.11
-38.57
-6.21
54.27
81.89
67.51
17.72
-3.97
-3.45
-24.85
-59.7
-106.92
-45.23
25.74
20.83
-13.38
-45.72
-99.71
-107.85
-31.96
92.76
110.82
-20
-48.96
34.23
72.24
102.98
97.51
30.43
-39.92
-94.41
-125.32
-97.3
-13.56
42.28
38.08
21.97
24.75
16.08
14.9
72.94
137.18
113.98
12.4
-88.81
-70.34
-28.43
-62.47
-37.26
-0.01
5.22
42.36
-9.03
-88.24
-49.15
48.7
43.97
-40.61
-41.53
18.51
21.6
-0.25
-7.64
25.58
24.12
21
17.68
12.49
16.48
11.58
-13.64
-25.72
-39.99
-57.47
-3.21
36.68
83.67
74.09
40.84
11.11
-11.93
-93.25
-144.01
-60.53
59.58
49.32
-11.63
-68.19
-116.96
-97.3
34.66
160.8
158.84
49.24
-69.02
-142.47
-107.16
-32.45
-22.49
-5.6
96.15
103.63
-9.62
-43.42
52.84
59.95
-29.98
-84.31
-86.58
-66.17
-4.69
55.95
84.52
48.5
-8.86
-61.55
-33.1
-5.6
-0.85
13.67
20.09
25.93
44.32
68.45
3.22
-93.81
-58.5
30.7
72.67
122.16
103.86
27.92
-10.47
-12.44
-17.79
-23.61
-36.79
-62.29
-118.9
-152.82
-73.12
53.7
107.01
117.58
144.5
65.07
-14.03
-27.63
6.39
5.31
-20.6
-75.24
-148.97
-118.64
-49.88
58.01
110.62
101.09
51.19
18.08
16.25
21.5
-0.07
-51.23
-90.93
-114.68
-1
87.52
69.01
34.19
14.68
12.17
7.94
15.4
-3.91
-13.14
8.14
20.01
-31.39
-64.77
-57.79
-48.07
-38.06
-55.18
-17.21
-22.7
-39.55
-58.39
-38.11
5.21
65.36
80.54
72.76
34.81
4.56
17.92
19.25
22.32
44.97
7.08
-173.73
-172.42
-49.81
58.97
101.27
169.01
170.92
84.79
29.54
38.39
43.34
-21.35
-90.73
-69.64
-62.42
-92.65
-123.87
-25.61
12.94
0.29
65.22
121.19
123.29
91.24
62.53
17.32
-58
-152.44
-162.86
-9.16
147.04
93.98
-5.73
-20.19
-17.97
-17.3
-28.02
-13.39
2.62
-17.95
-18.48
38.73
54.8
46.11
-42.32
-100.37
-87.27
-75
-67.14
-45.26
-62.89
-57.37
19.54
63.21
65.22
33.49
-5.71
4.69
2.29
56.77
123.41
68.07
37.13
-9.02
-62.57
-98.14
-97.11
-58.01
-14.87
67.22
124.71
102.42
46.51
16.13
13.96
14.41
30.14
-22.33
-57.73
-54.54
-32.81
-19.65
-97.74
-104.55
32.09
90.82
102.76
98.99
20.23
-137.18
-278.67
-261.48
-48.5
132.17
116.18
79.72
57.8
42.74
35.14
36.32
60.83
56.44
6.34
-8.38
-6.52
14.99
47.54
35.46
38.48
-4.41
-104.35
-171.78
-103.05
51.61
116.43
95.16
39.59
5.39
-9.95
10.77
5.08
-27.91
-22.64
44.97
51.51
5.78
-4.81
-25.88
-108.21
-106.02
2.93
58.37
92.33
62.75
10.85
-1.67
-11.46
-47.63
-28.22
-3.67
6.55
42.41
38.62
27.62
64.82
42.91
11.3
-11
-95.92
-88.45
49
105.8
68.64
6.24
-27.73
-53.11
-57.85
-42.36
-35.58
-37.03
-48.63
-100.94
-60.4
-4.44
49.4
27.65
-30.86
-78.36
-69.57
-76.83
-78.27
-80.58
-4.31
118.6
166.54
105.82
28.01
38.09
88.93
81.7
58.91
1.65
-63.81
-93.7
-113.83
-79.87
50.8
84.72
83.23
67.19
60.6
33.39
-36.96
-54.55
-52.85
-7.06
27.63
-61.09
-96.67
5.29
59.36
37.1
-21.43
-45.21
-15.1
32.16
2.34
-87.19
-8.59
124.99
120.05
46.99
40.6
6.68
-21.44
-26.89
-29.94
-58.42
-92.32
-87.38
-39.95
-16.02
49.1
106.91
105.25
115.45
92.91
2.08
-149.93
-203.39
-66.58
49.04
89.96
62.99
49.15
67.41
54.74
27.61
-12.83
-76.83
-73.11
-11.24
22.56
24.44
27.82
48.24
62.85
72.36
84.37
75.21
61.88
-6.07
-82.01
-99.58
-69.6
-141.24
-204.74
-115.84
11.33
88.56
94.68
76.35
34.16
-20.53
-18.28
52.63
72.9
51.49
33.06
-23.73
-81.55
-91.14
-112.17
-109.16
-22
-6.22
-1.74
41.97
52.5
24.46
77.2
88.8
9.94
-57.61
-105.78
-86.73
-32.89
14.14
14.95
-17.57
25.69
101.02
65.28
11.9
-3.99
-13.94
-8.63
20.86
37.1
74.84
81.79
48.4
-19.42
-62.53
-63.42
-103.86
-134.53
-55.86
8.45
41.03
68.15
75.46
68.12
29.18
-42.51
-84.4
-41.15
-7.33
-0.14
50.35
87.78
62.19
25.19
39.82
67.39
11.4
-52.18
-47.65
-48.36
-42.46
-14.13
-18.11
-120.11
-198.52
-170
3.81
114.79
155
133.69
91.06
13.8
-27.97
-13.66
22.75
30.8
46.77
44.85
-9.68
-40.19
-59.56
-43.67
122.63
146.78
85.38
18.04
-22.11
-5.32
3.52
-22.61
-26.53
-45.83
-56.98
-49.68
-10.55
12.67
1.05
-6.91
-33.46
-42.75
-12.01
10.65
10.2
26.02
66.66
40.78
28.84
13.32
6.1
29.68
-20.45
-155.63
-149.12
-12.78
4.73
-49.36
-32.91
75.36
116.31
64.55
2.27
-4.77
37.48
83.74
111.1
119.44
111.11
44.36
-4.87
23.81
15.78
-11.99
-22.51
-42.8
-57.52
-68.48
-47.93
-49.74
-63.97
-47.96
-6.75
36.11
27.16
-36.25
-131.03
-157.06
-97.08
17.87
32.27
-0.31
60.88
90.58
50.29
57.78
42.74
10.8
-14.76
-43.16
-28.94
12.97
3.13
-6.98
-20.03
-17.69
-19.8
5.46
36.71
63.22
60.66
45.07
15.38
-21.79
-89.82
-111.07
-85.1
-19.06
33.88
64.07
82.66
93.41
55.4
-4.37
44.73
99.97
78.13
-36.04
-102.96
-59.92
1.4
-3.12
-4.92
-41.03
-95.32
-114.89
-65.43
14.18
44.65
20.65
8.87
21.07
74.11
100.62
59.54
44.52
25.47
9.84
-6.33
-10.6
19.05
-34.1
-102.41
-52.99
-5.01
-31.07
-82.91
-67.13
19.64
56.74
71.34
53.88
25.31
-2.73
14.7
37.6
24.4
26.69
32.62
83.22
121.23
76.96
6.01
-7.28
-60.18
-123.15
-117.47
-120.74
-111.46
-78.44
-25.9
54.74
79.01
71.64
62.34
69.91
75.37
60.9
40.02
3.52
-71.16
-66.81
-9.78
11.54
42.77
49.99
3.14
-30.5
-47.39
-80.82
-127.68
-87.36
-32.79
-64.41
-101.49
-70.59
86.97
162.56
141.24
113.79
87.25
74.11
53.91
35.93
35.83
10.44
-13.41
-32.36
-26.75
-0.98
24.81
14.85
-7.18
-5.95
-11.36
1.46
16.72
-32.44
-56.52
-19.86
-24.27
-33
54.16
99.51
69.64
26.83
-55.85
-75.21
-52.83
-25.85
-27.12
-25.26
-7.02
-15.53
-67.7
-161.02
-82.3
115.96
139.65
90.37
44
14.14
-0.3
37.28
25.74
-27.13
11.85
24.58
-6.47
-58.39
-66.33
-3.91
12.55
29.77
0.21
-23.69
1.66
7.59
-35.16
-19.14
-13.2
-56.88
22.01
129.01
102
60.81
33.97
-10.06
-54.62
-77.37
-31.01
32.41
50.9
29.28
13.9
10.09
-26.56
-71.62
-78.36
-59.42
-58.99
-33.45
22.26
70.66
82.75
17.12
-14.82
3.99
34.02
43.08
63.74
38.34
-38.35
-34.06
28.42
43.87
23.39
1.99
-62.85
-98.89
-31.53
35.19
36.45
-10.21
-33.49
8.42
16.57
-8.42
23.9
62.08
59.98
20.04
-7.82
12.72
21.66
3.06
-5.02
-1.87
2.36
-29.18
-62.32
-2.41
26.27
44.6
11.29
-21
-13.26
5.38
5.92
-2.67
-7.21
-24.12
-20.9
6.78
80.92
84.51
13.08
-18.13
-8.42
-16.26
-43.45
-39.04
-15.43
7.19
-24.46
-116.53
-179.1
-123.8
69.35
166.89
109.45
22.8
9.39
48.47
65.29
34.83
5.93
18.74
38.34
42.27
15.24
-13.66
-20.16
1.95
2.4
6.35
24.77
-10.58
-29.78
-7.71
-1.95
-31.12
-23.72
25.09
29.42
-15.22
-33.62
-61.08
-102.82
-113.73
-52.89
-5.6
36.2
53.5
46.74
3.15
24.73
87.93
74.24
28.55
56.21
12.71
-87.82
-44.79
36.3
35.33
4.72
-43.88
-7.87
66.06
53.52
-10.59
-25.65
-5.45
-23.96
-75.82
-127
-131.75
-41.27
2.5
-14.36
22.01
53.9
88.49
81.8
65.93
57.73
7.84
-58.08
-125.99
-128.61
-31.56
34.4
78.87
60.58
39.95
58.51
62.8
47.81
16.46
12.03
26.57
23.83
-9.02
-23.47
-31.25
-117.79
-111.53
12.36
107.38
110.06
60.02
1.73
2.33
31.27
55.46
55.67
56.61
68.61
40.52
-50.13
-134.35
-130.86
-115.1
-60.55
-52.73
-33.05
59.01
64.74
1.31
-47.11
-7.34
41.82
34.47
45.37
33.23
12.46
-6.7
-18.06
18.07
67.17
68.84
45.75
39.06
12.22
-12.01
-18.9
-45.35
-75.98
-74.9
-88.33
-136.19
-96.55
10.01
96.11
122.94
99.8
77.02
41.45
4.23
-21.28
-38.03
-38.2
-29.45
-26.3
-26.21
-39.56
-61.94
-90.85
-122.34
-42.69
45.37
83.62
89.19
52.99
12.85
-4.32
52.67
104.12
91.98
38.72
6.92
-10.86
2.14
28.05
11.28
-86.09
-148.15
-82.79
40.34
147.49
101.05
-6.73
15.28
51.89
28.6
-87.3
-92.91
5.8
44.06
54.97
45.92
-10.83
-39.61
-48.96
-44.23
-41.53
-18.56
35.76
47.4
39.73
12.72
0.13
27.14
52.94
48.92
37.92
42.18
42.78
2.64
-17.39
-33.68
-28.69
-13.87
-22.99
-38.04
-78.35
-69.81
-92.34
-85.53
-55
-4.6
52.72
84.67
82.35
44.78
15.25
10.1
-7.3
-18.43
-34.61
-38.62
-8.6
13.11
-30.06
-75.43
-40.89
28.03
77.29
82.45
60.78
38.67
22.9
-7.41
2.69
51.23
56.05
44.75
14.48
-27.71
-91.89
-99.55
-17.39
6.61
-48.71
-60.57
-67.42
-47.81
11.07
-5.65
-46.17
-41.92
39.93
45.55
46.99
82.13
103.78
109.52
93.43
77.7
32.18
-14.07
-14.62
-25.97
-17.2
-49.39
-144.91
-138.49
-21.48
80.8
72.55
-1.44
10.92
-6.6
-60.59
-58.79
-27.77
-0.78
32.36
46.29
17.75
9.64
19.23
-26.89
-17.34
28.65
39.28
-2.61
-34.95
-58.51
-14.02
51.84
81.13
72.32
64.69
49.26
20.13
6.5
11.62
7.75
-12.88
-39.28
-36.41
26.04
52.16
27.7
-9.44
1.15
24.01
-27.55
-47.98
-42.64
-82.43
-111.37
-106.27
-83.87
-15.79
34.72
-0.22
-13.46
15.42
79.08
52.63
18.77
10.2
38.78
59.49
20.6
-34.15
-60.74
-81.23
18.59
51.98
18.22
-14.52
24.22
82.01
80.84
37.48
49.24
57.98
41.56
9.46
4.4
2.61
-26.7
-50.3
-60.99
-56.22
-64.13
-54.33
-47.68
-8.32
58.93
33.08
13.73
0.26
5.3
18.17
41.1
33.39
66.96
83.94
30.79
-29.5
-43
-41.18
-69.22
-79.88
-64.2
-15.68
4.5
-9.53
-37
-83.44
-99.79
-9.3
57.52
72.34
57.15
22.51
13.32
-28.06
-83.49
-50.49
-47.4
18.88
103.56
49.16
-12.23
24.45
89.73
73.89
15.64
-8.63
36.53
18.89
-24.32
-22.34
5.3
14.08
19.63
-14.32
-18.93
16.55
-11.73
-20.38
35.05
41.39
-18.53
-57.27
-14.51
12.22
16.9
20.71
19.14
9.26
22.82
29.17
20.05
30.79
47.2
57.6
22.01
-44.24
-60.67
-44.56
-51.47
-40.39
-14.81
14.5
-15.27
-58.35
-68.14
48.29
168.92
69.95
-44.83
-67.14
-61.75
-65.45
-80.9
-31.9
43.28
36.4
-8.22
6.49
55.99
82.12
34.49
-4.44
10.78
28.38
-25.5
-79.19
-46.92
-31.29
-0.61
33.37
66.8
36.88
1.08
-17.64
-25.76
-49.71
-42.1
4.71
21.67
-8.27
24.11
37.35
20.06
7.05
11.9
27.81
46.19
6.91
-44.97
-18.63
14.23
-42.1
-89.01
3.19
96.33
118.07
65.06
39.26
25.03
17.14
17.27
13.48
4.58
-8.55
-13.19
-28.43
-41.86
-19.25
-11.05
-17.86
-40.61
-42.26
-35.71
-68.83
-28.63
62.44
72.44
22.81
-0.48
-7.26
-35.61
-28.94
12.03
-29
-144.47
-132.65
-26.56
7.88
38.07
55.8
65.11
56.73
59.58
54.11
42.16
17.97
-6.3
-32.49
-11.67
-14.75
13.68
3.51
16.09
46.25
34.8
1.8
-2.18
4.64
2.9
4.44
3.89
-19.59
-61.59
-100.93
-75.62
-16.38
55.01
118.3
142.06
115.25
67.51
-5.74
-65.46
-38.24
-12.88
-31.65
-29.01
-63.28
-89.44
-26.59
63.09
74.5
60.09
37
14.89
-20.26
-41.13
-25.91
-50.26
-93.29
-62.71
-22.75
79.62
137.99
79.68
11.57
1.09
-2.76
-15.14
2.08
-28.7
-49.31
7.37
60.7
79.36
64.06
42.77
30.49
16.58
-3.96
-91.79
-159.18
-83.2
50.63
93.85
34.91
15.92
-8.06
-86.55
-112.77
-11.5
85.19
120.4
85.34
44.77
36.1
14.7
19.07
27.02
18.89
-21
-69.06
-85.48
-48.75
-7.29
11.48
39.09
17.57
-13.15
-6.8
-10.38
-33.23
-62.52
-72.71
-26.78
19.27
62.09
72.12
31.46
-11.39
-27.29
-5.42
31.88
38.22
26.7
15.34
-8.07
-61
-92.47
-121.07
-103.27
-59.97
-72.89
-82.48
-8.25
93.09
81.69
70.32
92.24
109
111.42
56.37
-12.35
-24.43
-15.82
-4.79
-15.58
-10.66
-12.86
8.24
28.83
18.68
14.06
1.63
-15.18
-14.73
-62.88
-112.84
-171.7
-131.19
24.06
135.44
121.25
88.45
100
72.09
49.73
15.45
-18.34
-35.28
-22.96
20.94
59.93
49.82
8.94
-21.87
-47.74
-29.31
4.73
26.91
14
-9.14
-37.95
-25.98
26.17
63.03
65.57
58.63
40.07
-0.35
-35.57
-66.89
-99.13
-98.23
-108.59
-101.62
-36.16
15.97
-17.49
-36.59
-0.8
26.47
37.21
59.94
83.08
33.18
-65.82
-80.35
25.04
61.53
33.44
4.48
-3.26
9.74
-12.29
-17.5
14.89
-24.61
-107.02
-116.69
-0.1
84.93
70.7
22.66
-20.06
6.69
33.75
38.41
47.79
40.2
40.6
48.97
25.22
-13.24
8.51
25.72
21.02
6.39
-1.95
-19.86
11.83
30.29
22.14
16.77
0.09
2.62
-7.87
-73.52
-73.4
-3.91
15.58
44.47
54.95
33.91
11.93
-11.13
-11.39
-4.14
4.04
-11.91
-46.16
-50.25
-45.3
42.53
125.26
105.03
48.6
-67.3
-118.27
-98.9
-94.07
-54.83
-29.26
-24.83
-15.05
-25.57
-26.58
19.99
30.28
22.39
35.67
77.32
54.47
6.53
-38.8
-66.22
-44.12
2.87
4.12
52.7
96.2
105.24
104.65
88.34
45.38
-55.99
-159.96
-136.83
-3.67
62.88
60.39
62.3
76.31
51.82
12.4
-36.24
-99.62
-134.12
-26.4
41.93
-1.33
-18.15
21.42
38.36
38.35
18.76
7.07
-10.93
-30.17
-50.69
-33.52
-14.02
-39.58
-112.79
-66.83
76.82
106.15
75.65
64.52
69.41
64.56
47.89
33.31
17.08
5.4
-9.2
-2.44
5.45
16.9
36.62
38.28
39.77
44.21
22.62
-19.16
-18.68
26.6
16.04
-24.91
-54.03
-61.46
-27.76
-12.96
-12.8
-26.1
-90.26
-134.47
-163.43
-89.36
21.9
77.21
63.74
34.76
5.17
-5.11
27.94
30.9
18.74
19.16
4.38
-5.89
2.85
-1.71
7.53
19.3
35.26
47.68
37.17
29.49
7.46
-40.63
-65.61
-30.01
-7.56
3.65
-30.42
-49.49
1
19.18
-32.37
17.26
65.82
39.83
42.04
42.61
40.05
7.11
-54.95
-84.72
-58.03
-15.26
14.82
19.75
28.65
49.91
48.37
41.09
2.79
-65.79
-41.44
-25.98
-47.46
-83.97
-23.4
24.84
45.43
66.97
59.15
4.87
-52.91
-40.26
-16.1
-16.92
-9.66
19.01
17.7
-6.46
1.83
41.29
55.4
40.6
7.92
0.35
6.1
2.21
4.99
-14.88
-22.16
-29.34
-53.2
-60.36
-89.51
-66.05
-21.79
18.06
36.29
13.08
10.51
41.85
80.98
102.17
97.86
59.44
-5.3
-29.56
-17.85
-64.05
-142.52
-60.77
59.77
91.58
59.74
-9.06
27.95
68.84
62.33
36.59
7.2
-1.81
-8.68
-17.4
22.94
6.23
-6.18
7.44
9.76
-7.16
-30.26
-21.98
-11.78
-14.95
-6.76
-5.87
-9.98
-3.75
-5.66
-22.85
-33.37
-50.92
-29.67
-38.95
-47.98
-32.01
31.26
33.85
-5.99
6.25
52.13
79.34
65.77
60.99
94.27
98.15
14.46
-122.29
-138.87
-73.56
-18.13
-12.98
-31.3
-18.32
-15.36
-0.4
13.48
26.83
-2.21
-1.18
46
37.23
12.19
9.99
24.43
9.23
7.89
0.36
-15.52
10.19
47.25
68.35
52.68
-21.41
-107.31
-130.19
-106.52
-23.35
-7.77
-34.53
13.85
71.55
46.44
41.16
64.72
48.04
31.85
28
8.22
-40.95
-103.97
-76.19
48.26
121.63
68.35
40.13
26.77
-27.82
-54.08
-20.17
33.67
56.87
4.44
-40.07
-43.85
-37.01
0.96
37.15
34.03
23.14
-42.75
-151.85
-116.34
-21.56
19.23
63.45
64.57
57.54
57.13
57.72
59.46
21.04
-52.29
-91.79
-57.82
-5.94
27.19
7.76
-78.28
-129.75
-60.95
35.48
79.27
72.98
60.7
58.58
68.42
37.5
14.7
-4.64
-28.18
-47.66
-53.4
-39.67
-44.8
-70.65
-67.47
-74.5
0.51
38.57
22.07
71.8
64.03
62.4
82.68
76.53
32.13
-9.5
-32.25
-62.19
-14.85
27.08
37.82
20.04
-10.43
-2.14
-16.86
-21.49
28.63
48.13
53.58
34.12
6.15
24.5
20.91
-19.65
-24.13
-30.81
-43.42
-14.32
14.55
27.11
23.02
-6.29
-33.93
-38.9
-44.79
-35.63
-20.76
-50.76
-86.46
-150.53
-161.74
-88.53
-38.05
31.65
105.73
127.02
114.94
47.82
5.66
-44.46
-97.94
-53.01
37.81
94.87
94.06
60.29
32.76
15.2
-10.04
4.76
46.35
56.9
3.49
-41.81
-24.12
24.58
25.73
0.37
-22.82
-22.76
-29.58
18.31
12.39
-29.59
-18.68
37.86
68.05
39.83
-1.36
-65.97
-135.6
-107.32
-50.6
5.68
65.72
89.46
75.55
58.94
38.43
0.8
-14.67
-0.11
-36.45
-63.63
-45.56
27.53
74.58
47.11
10.35
10.81
14.93
-9.42
-19.28
4.19
27.75
-4.73
-36.05
-61.18
-70.58
-35.05
11.83
67.95
80.61
53.67
37.52
2.27
-4.53
12.41
-1.25
-46.14
-91.71
-57.05
26.12
34.09
1.27
-2.51
23.18
42.82
28.51
-7.26
35.75
53.67
26.94
-53.09
-87.3
-80.03
-59.37
-9.83
-2.57
-44.41
-63.23
-24.63
46.5
59.14
49.03
-10.64
-119.84
-154.44
-107.36
-46.69
69.39
127.95
101.66
66.38
49.66
36.66
26.39
4.59
-6.62
-31.65
-96.11
-136.2
-86.43
-4.15
72.73
144.76
125.02
45.06
6.91
59.24
74.47
73.29
59.84
15.59
-54.5
-132.82
-86.77
-24.72
-43.21
-6.89
29.26
50.21
51.61
37.94
39.01
40.23
31.71
21.69
-15.02
-90.53
-139.29
-118.96
-59.47
45.03
82.1
77.98
40.6
6.11
9.25
14.32
18.39
9.56
-0.45
-10.36
-18.45
-37.48
-71.99
-79.72
-98.49
-72.32
-27.16
18.47
66.95
90.19
90.47
71.22
47.35
54.84
67.82
37.08
-70.13
-154.15
-122.38
-81.05
-21.36
26
52.21
58.44
81.81
46.94
15.53
-13.82
-113.04
-89.9
24.18
54.97
43.54
0.61
-3.88
-2.75
-7.21
8.22
42.34
72.58
77.54
34.71
-13.69
-96.92
-163.11
-120.73
-58.58
23.74
65.14
70.69
49
11.84
-49.43
-101.65
-72.83
-5.48
55.3
89.78
92.34
86.32
66.17
-37.03
-127.65
-106.38
15.84
85.03
82.49
64.89
56.51
44.92
-3.96
-35.63
-42.18
-54.7
-41
-8.57
31.4
51.93
51.78
41.08
27.55
23.68
18.37
-6.42
2.85
9
-12.78
-28.08
-51.81
-36.55
-69.76
-104.57
-93.52
-48.58
13.49
29.44
55.08
105.9
89.3
66.75
44.35
20.88
5.9
-30.53
-52.7
-50.35
-23.21
4.24
-39.08
-64.1
32.21
89.38
69
45.62
-40.69
-135.07
-104.36
-21.31
-24.72
-39.89
-56.38
-83.09
-56.16
32.75
88.36
81.2
60.55
52.3
40.92
42.44
48.62
4.11
-61.36
-161.2
-214.26
-232.21
-136.93
102.85
191.41
155.58
118.48
91.35
67.85
56.82
57.55
66.43
63.61
61.73
67.61
47.08
17
10.39
-0.29
-41.04
-118.66
-126.75
-40.99
10.32
43.81
36.23
23.66
39.76
26.06
-4.15
-6.16
-42.71
-30.51
-28.88
-10.72
17.06
4.75
-41.87
-39.4
-9.37
-7.13
-46.22
-57.33
-42.94
-23.35
-12.13
-8.26
15.94
30.28
2.29
-1.85
0.09
-21.6
-22.71
-30.76
-13.27
-8.34
-14.28
2.73
34.62
15.68
-21.54
-38.29
8.43
67.95
93.53
71.61
40.73
17.97
10.45
-2.31
-4.11
0.04
-13.65
-21.86
-1.02
-39.05
-62.49
-54.37
-27.16
-26.84
8.57
43.54
33.05
-49.93
-94.23
-12.81
68.41
76.27
49.17
-13.63
-71.71
-76.05
-14.14
72.75
90.04
36.47
-16.51
-31.82
-5.01
1.94
-8.5
-16
-4.75
13.3
20.27
23.16
29.59
58.17
60.49
29.77
-9.91
-27.39
0.51
53.58
79.08
67.35
32.09
10.34
-6.96
-41.2
-59.44
-86.15
-169.72
-170.29
-76.4
4.03
30.72
50.43
56.66
27.43
21.31
49.2
54.86
43.5
30.44
9.97
4
10.66
13.05
-11.88
-18.17
-8.26
-23.4
-41.87
-15.92
-0.81
-9.52
-21.83
-75.12
-56.13
-7.13
51.47
62.16
39.43
-2.77
-28.47
-23.91
-53.68
-125.75
-152.01
-86.69
-4.11
60.92
49.69
38.86
10.29
-56.93
-62.94
4.63
101.57
116.39
53.05
-26.22
-46.57
5.41
42.67
51.3
72.3
83
75.77
40.04
19.68
48.77
45.48
4.5
-50.93
-76.82
-46.22
3.24
25.64
-0.76
-34.66
20.2
57.24
33.82
-10.97
-23.84
27.73
48.92
41.96
15.02
-23.21
-26.85
-9.93
-3.68
-60.17
-83.46
-77.27
-40.86
4.46
19.25
15.77
3.85
-11.43
-49.73
-121.09
-134.96
-69.21
2.04
30.35
74.28
87.27
69.8
56.08
55.58
25.79
-33.39
-78.13
-80.8
-32.07
33.69
76.72
90.08
101.73
97.54
77.56
94.13
32.67
-81.7
-61.87
-38.13
-24.75
15.04
26.08
6.2
-25.25
-52.63
-45.38
-24.85
9.82
11.34
-58.32
-91.06
-12.32
118.62
172.9
78.17
10.8
-14.24
-21.08
-12.41
-8.18
-39.24
-72.23
-14.36
30.94
12.41
-0.73
-12.21
-54.17
-90.93
-43.91
-31.1
-100.92
-87.43
26.07
108.9
93.3
15.02
-43
9.34
30.02
-5.84
-52.11
-40.35
20.18
33.64
23.84
23.08
48.7
35.86
28.22
71.71
96.33
71.49
53.88
29.83
-19.71
-28.46
-1.69
-11.45
-35.52
-27.17
-0.99
-9.75
-43.12
-101.02
-84.71
37.65
65.04
-10.03
-69.33
-22.8
14.81
2.72
16.55
11.65
-10.99
-3.45
-21.39
-96.52
-101.52
-4.95
66.92
93.76
77.97
61
42.03
11.51
-23.31
-44.92
-29.79
-20.61
-38.63
-73.31
-57.94
21.27
68.07
66.13
73.91
87.64
35.41
-25.84
-39.62
-65.42
-57.36
-17.08
10.89
-5.66
-31.41
-54.35
-82.71
-93.99
-67.96
-17.51
73.27
113.19
76.61
46.32
21.85
21.6
20.15
23.99
3.67
-16.86
-0.31
3.11
-11.91
0.33
-15.24
-55.52
-62.86
-1.13
80.28
115.98
99.86
86.4
43.44
-35.5
-121.02
-106.5
-60.33
-67.9
-86.11
-56.16
-28.89
-21.8
10.57
-13.29
-2.61
42.78
71.1
39.21
-12.79
-31.2
-26.08
35.36
54.89
36.01
23.75
42.52
48.87
29.11
13.6
36.04
49.87
42.11
-7.94
-72.64
-75.42
-49.38
-35.52
-17.25
-6.73
-12.11
-21.65
-33.14
-37.55
-49.47
-51.29
10.76
63.91
57.76
23.82
5.28
14.61
-2.38
-29.48
-51.19
-35.71
-15.67
-53.12
0.07
89.63
102.64
64.88
22.38
18.21
0.69
-15.51
22.43
22.85
-39.21
-55.54
-1.94
34.02
47.01
11.35
-10.91
-7.37
23.51
10.38
-0.58
-1.78
-1.93
23.27
28.07
-17.59
-102.1
-179.34
-129.42
10.53
95.33
99.63
55.13
35.53
31.58
0.17
-44.92
-58.56
-14.97
29.5
2.39
-40.73
-15.99
17.47
39.31
56.43
48.37
29.54
12.31
-20.46
-7.8
18.61
-8.55
-124.18
-168.96
-10.01
88.99
100.47
86.88
71.97
57.95
42.06
17.7
10.37
39.1
28.03
-13.28
-24.82
-9.8
-13.34
1.46
43.78
19.32
-71.02
-124.97
-171.76
-153.49
-72.36
-28.67
25.25
13.03
-12.7
-13.42
-11.8
4.58
18.21
0.42
31.7
71.65
76.59
52.97
42.47
22.38
-20.9
-80.69
-71.32
-28
-26.25
-2.55
21.74
36.14
38.98
27.89
21.55
32.02
29.08
-5.52
-8.68
-7.12
17.89
23.69
21.26
16.34
19.76
2.8
-39.07
-78.18
-31.93
28.52
27.78
33.28
19.67
0.61
-13.68
-43.2
-14.68
0.08
7.24
10.93
21.23
16.02
12.48
-11.31
-20.12
-11.91
1.97
-20.52
-55.53
-56.81
-33.46
-8.95
-0.91
-42.85
-81.79
-55.15
26.78
102.94
98.78
94.99
71
35.94
2.15
-0.8
-4.3
-49.62
-81.59
-80.96
-81.77
-39.65
11.64
5.58
52.44
124.88
125.53
88.97
46.01
0.63
-32.41
-28.19
-1.67
1.9
-12.25
-31.47
-58.61
-51.87
55.48
122.74
33.95
-59.26
-94.97
-79.68
-50.25
-26.76
10.03
28.78
8.74
-42.88
-113.1
-91.98
-10.54
-24.53
-9.37
65.04
68.56
53.73
53.63
54.52
12.68
-27.57
-42.38
-8.22
20.96
4.02
1.27
21.68
0.46
-27.39
4.49
39.47
49.27
32.51
17.86
-8.04
-15.21
-1.6
21.31
30.98
23.74
1.15
-40.98
-51.03
0.75
16.18
7.79
6.3
-11.86
-30.47
-17.57
4.36
13.45
40.15
64.3
46.65
26.3
-1.85
-31.86
-101.69
-87.66
-44.49
8.49
50.55
66.28
86.17
89.49
74.1
49.52
-6.51
-67.05
-74.87
-48.8
-12.25
8.94
-18.48
-65.81
-69.78
-20.32
32.13
72.59
73.17
47.69
1.26
-50.47
-93.2
-99.65
-89.94
-56.54
-15.49
14.11
50.86
78.21
73.27
49.99
41.04
22.99
-6.58
-46.16
-78.78
-19.4
52.63
39.56
30.7
31.79
14.14
-46.44
-23.67
18.7
-2.87
-16.78
-20.11
-19.46
-8.37
13.81
21.52
30.5
35.66
14.73
-5.46
8.61
26.47
-3.01
-43.04
-37.68
4.24
-30.17
-73.07
-67.63
-42.23
-26.8
-3.73
32.09
-7.91
-52.94
-21.35
32.94
71.99
78.12
66.62
59.53
58.32
32.77
-18.11
-29.32
2.49
-6.12
-51.2
-64.45
-58.73
-18.44
52.76
57.81
28.28
-40.2
-56.98
7.74
42.77
25.91
46.69
57.8
66.56
91.4
61.15
19.88
-1.1
-27.96
-44.48
-53.98
-51.51
-42.87
-37.51
-74.46
-126.78
-77.7
11.02
30.4
5.53
-6.92
13.89
56.59
58.86
75.32
90.24
44.97
-46.95
-115.27
-76.81
-22.12
20.45
20.97
-16.92
-46.3
-29.32
42.69
29.27
-21.63
-12.32
46.18
55.28
14.7
22.08
36.54
31.6
23.51
20.61
8.14
-7.42
-20.47
-34.33
-15.97
-4.36
-23.1
-44.69
-50.6
-81.57
-112.39
-91.24
-28.98
20.27
54.41
111.18
93.58
32.65
10.52
30.01
52.38
32.88
1.17
12.03
9.7
-40.15
-49.85
-22.95
-8.75
-12.68
-16.37
-10.74
8.49
41.17
63.9
51.77
-15.49
-66.43
-84.88
-65.3
-19
-32.09
-88.92
-69.79
29.73
58.21
36.66
1.99
-1.03
22.65
67.78
84.2
39.55
12.15
13.68
-21.99
-89.34
-83.82
4.57
56.78
30.58
16.14
35.91
29.96
7.96
-26.44
-45.29
-14.83
34.04
38.83
1.14
-2.9
52.48
87.84
89.89
35.79
-16.42
-23.47
-12.42
20.11
30.55
-26.41
-90.01
-83.56
29.5
56.62
36.75
29.83
7.01
-9.1
-26.04
-30.61
-14
-19.56
-24.49
-15.97
-70.11
-116.23
-52.02
46.72
81.72
21.14
-65.35
-94.4
-70.41
-28.49
34.02
46.55
14.32
-34.4
-57.7
-24.36
39.08
65.61
61.24
15.62
-18.48
1.82
1.75
-20.5
-58.13
-29.97
30.1
23.34
-4.45
20.67
42.02
43.95
53.73
50.12
22.91
23.6
36.32
19.7
-2.33
3.4
13.48
32.57
20.01
31.55
26.56
-0.17
-10.98
-29.69
-46.37
-44.17
-53.2
-62.91
-30.24
9.1
55.37
69.86
45.45
31.73
3.75
-26.2
-30.91
-25.2
-18.01
-14.58
-30.87
-62.57
-104.85
-71.31
24.69
68.9
55.99
8.56
-4.36
40.26
44.22
10.8
9.2
28.98
31.41
5.4
-12.95
-15.74
-21.96
-27.86
-33.35
-27.92
-12.1
25.72
44.37
14.07
-21.51
-27.37
-66.49
-123.72
-105.13
-8.97
-3.55
-50.72
-65.03
-20.37
43.66
97.36
96.82
37.12
17.74
15.9
9.66
6.82
-2.74
-6.68
17.11
25.82
-15.98
-33.66
-14.41
-14.83
-23.43
-29.25
-11.91
16.88
52.83
81.27
67.45
64.7
54.35
39.38
14.94
-1.29
9.32
17.12
2.42
-29.79
-48.79
-77.84
-75.81
-39.02
18.17
8.66
12.14
10.6
-3.93
-3.3
49.65
49.12
8.79
-11.94
-7.54
-1.57
0.23
-8.58
-31.98
-52.69
-43.6
14.95
17.12
-32.83
-35.79
15.88
-1.79
-6.24
38.03
67.53
36.29
7.08
29.49
44.94
42.41
69.59
82.76
65.15
51.71
19.61
-29.53
-48.75
-42.09
-49.75
-69.74
-58.92
-45.1
-16.39
5.03
-33.52
-65.35
-39.35
-22.74
-21.6
-11.46
-7.63
14.93
-15.1
-92.21
-104.58
-10.42
45.23
82.67
75.37
42.64
46.58
41.37
27.84
28.54
22.07
22.05
19.35
11.32
-3.36
-54.64
-83.23
-10.61
19.47
20.77
35.89
21.67
10.3
-1.91
-12.76
-27.62
-14.56
47.11
60.76
21.4
-19.62
-76.7
-108.5
-62.48
2.35
34.1
27.74
54.8
70.57
8.38
-15.87
-2.46
9.38
-18.09
-30.21
1.04
49.22
63.65
35.85
-10.9
-12.67
-2.75
-13.73
-17.24
-22.62
-14.73
-2.23
-2.88
-5.28
-24.12
-14.42
4.73
-2.55
-11.96
-35.46
-78.88
-95.3
-71.19
-11.92
32.43
32.54
20.59
39.99
60.79
61.3
38.14
37.13
13.63
-10.34
-13.12
-22.3
-13.83
26.14
34.84
18.4
2.04
-16.21
-10.63
-17.3
-20.96
24.23
31.08
20.93
-9.71
-67.66
-65.96
1.68
-10.25
-30.64
-4.74
42.34
-4.03
-49.02
-28.17
-2.49
-18.84
-67.74
-76.29
-24.28
32.26
65.8
73.59
29.67
13.66
34.51
44.81
37.15
22.24
22.99
39.42
5.89
-30.06
-46.7
-42.13
-29.15
-2.73
9.6
-2.04
-21.08
-7.16
13.48
14.21
18.23
18.93
15.99
13.73
12.8
6.31
-8.96
-24.96
-9.51
-10.24
-79.23
-128.77
-74.28
11.43
46.56
45.27
30.95
28.93
4.53
-9.56
13.86
-22.33
-122.76
-96.95
-10.54
-3.21
-38.56
-29.39
39.53
37.88
-0.64
-13.63
14.06
19.56
-2.98
-32.79
10.46
54.82
75.96
73.27
62.56
50.38
44.32
28.31
25.24
40.89
43.71
23.4
-23.38
-47.15
-9.29
-9.87
-22
-28.25
-44.53
-31.63
15.9
32.61
32.08
-17.44
-50.8
-66.84
-94.77
-111.02
-6.7
102.49
101.81
51.84
29.23
12.47
-24.08
-39.47
-43.81
-15.17
20.61
-15.27
-74.96
-105.54
-69.25
-32.3
4.33
28.25
66.91
79.3
72.21
47.86
-7.16
-30.15
-8.95
1.01
-39.7
-54.12
-47.35
-16.29
41.66
58.85
24.87
13.89
27.99
25.37
5.13
-13.2
-28.8
-26.71
-20.45
-8.58
-13.08
2.11
28.91
-8.62
-46.78
-32.2
-0.02
29.84
31.94
23.23
1.64
-28.24
-28.62
8.31
32.49
-6.13
-30.85
-23.09
15.23
24.87
27.41
26.82
10.55
52.58
72.92
31.76
1.44
14.89
12.62
-8.1
-29.51
-39.57
-40.63
-30.19
-11.06
1.33
-5.2
-16.29
-10.51
3.85
17.72
30.56
18.75
-6.03
-17.38
-45.43
-72.78
-106.57
-58.51
6.24
0.72
9.74
50.75
42.78
14.23
1.04
15.43
37.43
40.61
38.01
23.06
19.22
11.91
3.34
6.22
4.73
-10.61
-14.92
-14.25
-26.95
-25.73
-12.01
-0.47
4.22
-0.37
-11.55
-5.45
-14.86
-16.48
10.71
22.82
22.17
-16.24
-16.59
-13.25
-8.83
-6.89
-0.71
3.46
5.83
8.18
10.84
10.49
11.06
8.46
5.68
2.2
-4.16
-7.87
-9.87
-9.96
-11.59
-11.98
-14.83
-14.01
-10.79
-7.5
-4.6
-1.91
0.81
4.53
8.7
9.12
10.35
8.76
3.84
-6.85
-7.01
-0.98
0.46
-7.76
-14.48
-14.84
-13.6
-8.52
-4.53
-3.79
-2.16
1.17
2.62
5.7
7.59
10.46
10.66
11.49
11.68
3.03
-3.66
-5.18
-5.54
-4.09
0.64
-1.78
-5.01
-4.89
-3.48
-4.41
0.12
4.48
6.96
9.79
13.27
15.3
14.71
12.61
9.18
5.93
5.67
5.42
7.92
6.76
3.65
-0.02
-0.05
-0.56
-0.57
1.95
3.77
7.64
13.92
15.9
16.85
17.1
18.02
17.77
15.2
10.71
5.42
1.07
-4.79
-8.84
-13.88
-17.19
-22.36
-23.26
-20.12
-19.65
-16.99
-16.18
-13.62
-7.26
-2.81
0.23
4.32
5.13
4.54
3.4
-0.12
-8.42
-6.77
-3.77
-1.23
-5.69
-12.22
-11.7
-11.92
-14
-11.95
-9.6
-5.88
-2.35
1.02
5
6.44
5.33
8.94
11.29
10.18
8.74
5.45
3.82
0.25
-4.27
-8.09
-12.61
-12.68
-13.24
-13.32
-10.27
-2.88
1.99
4.7
7.27
9.02
4.74
2.3
3.34
6.39
6.2
8.9
6.21
1.32
-3.69
-7.69
-10.71
-10.25
-12.62
-12.7
-9.67
-6.65
-2.64
1.99
3.99
6.65
8.52
10.64
10.66
4
0.3
-1.2
-1.33
1.51
-0.71
-5.46
-9.07
-9.79
-12.79
-9.63
-6.3
-2.83
-2.72
-1.04
3.02
7.64
10.77
12.36
12.24
11.36
11.62
7.59
4.49
4.64
0.02
-5.4
-6.98
-8.45
-10.19
-11.18
-8.08
-5.95
-7.73
-6.54
-8.41
-5.36
6.83
13.66
18.43
16.73
12.57
7.44
5.64
2.72
-0.43
-3
-5.5
-7.34
-12.15
-10.12
-13.24
-13.17
-9.27
-3.72
2.52
6.48
9.55
9.35
10.79
12.01
12.75
13.59
11.65
8.9
2.4
-3.18
-3.99
-6.91
-12.44
-11.55
-11.25
-9.95
-6.58
-4.7
-2.03
3.99
5.86
4.49
4.88
7.19
9.89
11.79
9.65
7.89
2.98
-2.93
-5.55
-12.06
-18.83
-15.93
-11.36
-9.54
-1.05
-3.39
-2.79
-4.19
-0.68
3.86
12.6
16.44
16.04
13.36
11.68
8.93
2.02
-0.24
-1.76
-2.13
-5.37
-14.7
-23.69
-14.56
-4.17
1.4
2.39
0.87
4.21
9.23
10.36
12.25
13.09
11.39
10.18
9.03
5.68
0.89
-3.19
-10.68
-12.62
-11.2
-11.71
-13.08
-14.03
-9.89
-6.25
-4.84
2.34
4.3
3.51
6.91
13.11
14.01
10.8
9.53
9.07
3.64
0.26
-2.71
-6.91
-8.32
-11.38
-12.03
-13.04
-10.36
-6.08
-3.85
0.09
3.43
6.12
10.03
11.66
12.35
11.53
10.71
8.75
5.54
3.04
1.21
-2.71
-6.18
-7.91
-10.42
-12.81
-12.37
-8.28
-5.79
-5
-3.61
-0.43
1.34
7.54
12.26
13.54
13.68
10.87
2.36
-6.7
-6.36
-6.77
-4.25
0.89
-5.12
-13.72
-15.82
-14.56
-6.48
0.93
0.82
0.95
6.2
9.24
11.46
11.17
11.79
7.44
3.18
0.98
0.24
-2.61
-12.19
-21.28
-9.72
-5.28
-5.1
-7.06
-7.6
-6.37
-3.04
-1.7
-1.82
-0.49
3.71
5.86
7.69
9.1
7.23
3.24
-5.03
-7.55
-9.46
-9.66
-10.61
-12.67
-14.07
-12.84
-9.37
-7.63
-4.6
1.12
3.27
3.87
4.59
5.86
9.54
11.17
10.01
7.33
6.24
2.66
-4.4
-16.72
-20.6
-15.88
-17.98
-13.07
-8.55
-8.01
-1.22
2.92
2.12
3.96
5.33
4.51
4.22
6.92
7.6
1.28
2
4.46
3.97
-1.82
-6.97
-11.91
-17.12
-16.05
-14.65
-7.03
-3.49
-2.23
-8.13
-10.11
2.9
8.36
14.74
19.06
17.97
12.92
4.74
-2.68
4.1
1.91
0.52
3.1
-3.53
-7.74
-13.55
-18.79
-20.84
-7.27
-2.14
-3.03
-7.38
-24.58
-26.4
-23.15
-4.97
19.95
27.76
25.22
13.14
1.36
-13.23
-23.18
-19.06
-12.9
-6.08
-8.92
-8.75
-10.31
-11.59
-5.71
7.75
22.96
19.45
-1.42
-3.88
3.65
11.13
18.77
12.45
-9.75
-37.99
-68.45
-63.68
-31.51
-3.66
12.83
17.04
-3.4
-9.31
11.27
19.73
11.71
14.04
19.09
9.15
6.68
11.19
9.35
8.48
5.88
6.31
6.87
1.99
0.67
-0.61
2.49
2.91
-1.54
-5.95
-2.03
8.13
10.66
7.66
4.98
4.18
5.77
19.11
20.91
15.5
6.55
-9.35
-21.83
-13.62
-1.46
1.95
4.85
0.3
-3.91
-8.34
-11.92
-18.34
-20.78
-15.65
-1.91
13.13
20.07
18.97
-4.1
-20.21
-19.43
-15.35
5.39
10.93
-2.65
-25.92
-44.6
-42.11
0.27
6.84
-2.88
2.98
14.1
15.83
7.64
11.02
14.89
16.59
14.27
3.42
-14.43
-28.3
-24.76
-32.3
-48.02
-31.75
-17.23
1.85
5.55
-1.29
-17.9
-32.52
-8.56
4.29
22.37
29.79
34.69
9.95
-17.62
-23.29
-0.13
19.37
12.14
-0.64
9.04
26.09
27.43
14.45
5.46
9.99
5.83
-7.9
-4.04
2.24
-1.62
2.91
7.28
9.88
18.98
24.1
26.52
23.69
16.55
11.75
2.53
-14.87
-26.1
-26.91
-18.77
-8.86
-8.83
-6.76
-7.16
-14.97
-12.35
7.71
19.61
15.94
12.32
7.93
6.36
3.61
10.18
9.64
0.11
-2.75
-10.9
-32.98
-46.93
-18.45
-5.12
-4.48
-9.92
-16.55
1.48
21
18.98
-1.02
-6.49
2.4
7.53
-2.33
1.36
12.69
16.97
14.62
-12.61
-31.29
-30.86
-9.93
12.96
22.6
3.67
-12.52
-7.34
-9.37
-8.35
21.94
30.72
17.08
8.85
-11.36
-28.58
-32.61
-43.07
-44.73
-4.4
15.49
22.06
16.2
-12.01
-21.52
-8.11
-3.8
6.95
4.84
-7.43
-22.95
-29.45
-40.38
-9.61
26.81
17.92
-25.11
-28.29
5.58
18.63
-16.32
-30.06
-8.68
34.51
71
56.33
15.49
-20.47
-0.98
30.42
-5.88
-66.8
-94.9
-91.9
-35.56
-4.58
37.21
46.03
59.21
62.61
55.29
39.77
35.59
31.31
34.26
39.27
23.38
-6.33
-17.03
2.5
30.43
52.46
29.8
17.78
9.96
-6.64
-40.49
-56.61
-23.67
2.94
34.81
44.8
42.64
52.14
55.12
11.65
-63.52
-85.07
-72.94
-29.24
8.8
20.39
11.42
-1.61
2.52
14.33
20.86
52.1
50.18
21.49
19.5
2.44
-27.55
-55.83
-49.28
-44.47
-57
-130.26
-124.87
-42.83
58.51
91.34
84.57
80.02
77
37.24
11.88
-9.53
-2.95
4.42
-9.36
-50.91
-57.77
-92.1
-187.4
-172.72
-83.06
46.21
90.24
77.33
62.27
58.18
47.69
16.06
-7.57
4.07
43.11
29.83
-20.08
-38.67
-15.49
-38.33
-102.73
-106.79
-34.25
53.34
37.98
8.8
60.16
85.81
56.81
-20.31
-40.7
-31.86
0.36
33
28.12
5.04
0.77
64.27
117.22
52.76
-7.93
-30.44
-6.77
49.92
-2.57
-34.62
9.51
52.13
95.18
110.83
94.98
66.75
52.87
28.98
58.79
50.58
-7.24
-47.38
-36.75
-15.82
28.89
38.61
39.03
2.82
-26.15
-12.35
-17.21
-78.01
-53.07
1.63
11.91
45.54
60.54
59.26
69.44
49.66
28.36
27.53
29.37
24.28
20.19
13.51
-8.58
-90.67
-136.73
-126.6
-67.86
-13.72
41.21
28.58
-20.89
-0.58
38.73
46.35
16.55
-17.36
9.85
36.27
9.49
-36.11
-47.32
-45.84
-23.22
-35.9
-37.82
-12.98
-13.38
-19.39
2.64
14.24
2.69
-15.13
-21.58
-26.91
-25.25
-29.52
-8.62
31.42
24.33
-80.34
-106.09
-22.78
64.33
106.49
116.61
127.4
117.02
87.96
58.51
39.75
37.78
52.93
57.2
41.08
24.13
41.89
14.6
21.78
24.68
-13.32
-50.57
-25.17
-21.28
-42.79
-43.09
-39.24
-38.89
11.56
57.17
51.75
36.14
28.96
39.23
24.48
-37.27
-55.65
-34.99
-38.88
-33.5
-35.68
-65.97
-106.25
-103.73
-40.73
4.7
-10.24
-35.25
-30.94
-20.47
-12.16
-19.15
-28.2
-101.6
-133.3
-79.05
10.35
44.29
21.27
-33.32
-31.81
5.42
45.07
52.24
40.75
12.52
-72.87
-158.62
-185.11
-144.99
-17.27
50.1
62.35
74.12
31.36
32.53
21.07
6.06
18.59
45.11
48.54
16.65
55.34
35.82
-41.68
-15.59
15.64
-14.77
-80.88
-137.71
-135.79
-130.81
-127.83
-129.58
-44.22
14.15
8.89
9.01
10.62
6.66
6.09
43.99
20.55
-24.22
-81.8
-129.1
-82.37
-8.57
47.1
38.51
-17.66
-38.79
-30.57
-39.31
-12.54
11.26
-22.16
-48.13
-73.79
-73.78
-29.77
-10.6
-10.4
-27.43
-47.99
-73.14
-87.77
-105.53
-109.12
-86.93
-69.71
-40.38
-30.16
-40.83
-47.03
-25.67
-19.57
-50.94
-67
-6.07
-5.61
-8.95
34.3
59.35
55.92
42.23
12.14
0.75
30.5
33.48
24.94
-26.24
-83.92
-72
-9.28
44.97
102.56
105.08
66.74
49.15
41.09
26.2
32.77
56.04
79.17
66.13
52.52
74.42
76.45
46.11
46.04
40.61
9.22
-14.36
-25.26
2.31
50.62
54.08
45.46
39.86
23.29
-1.07
-30.46
-57.37
-71.72
-56.4
-2.2
25.77
74.84
71.11
48.16
14.87
13.36
59.67
83.94
76.92
72.35
50.91
11.58
21.04
39.09
50.49
24.36
37.88
50.13
40.96
42.74
64.61
21.12
-67.72
-49.69
19.54
31.44
80.87
139.9
177.55
171.42
152.24
121.77
90.88
84.62
91.58
89.72
80.86
75.55
56.9
67.71
91.45
111.51
95.15
41.47
4.41
-5.67
-0.18
-8.23
-40.12
-57.41
-52.85
-47.52
-59.07
-87.39
-103.96
-74.92
-19.98
29.85
42.08
8.3
-10.01
-15.86
-27.13
-25.54
-24.35
-37.72
-55.28
-48.99
-31.09
-30.24
-36.32
-32.38
-30.34
-33.87
-19.52
-2.3
-24.6
-42.73
-29.41
-25.82
-47.9
-40.56
-37.52
-113.03
-134.69
-101.31
-51.16
-33.28
-49.05
-53.9
-20.95
25.85
50.15
68.68
79.07
65.6
22.65
-4.26
-8.77
22.17
22.05
-4.92
-16.45
-18.88
-19.84
-9.34
12.43
37.53
40.68
22.86
-26.18
-63.42
-72.3
-99.69
-102.29
-42.24
-1.53
11.34
16.71
17.77
19.77
27.07
4.87
-28.43
-30.98
1.09
0.96
-23.6
-7.8
11.87
42.35
69.74
63.42
40.15
2.14
-40.26
-22.55
-1.17
14.1
-9.84
-22.73
-1.33
26.37
16.52
-23.13
-2.57
17.65
-44.46
-78.34
-41.67
-16.66
-19.14
-36.02
-49.94
-45.19
-24.94
-26.11
-9.66
17.94
21.09
12.67
30.63
26.91
4.6
17.58
24.74
29.83
-5.72
-27.68
-13.77
6.42
30.9
52.12
59.21
54.51
17.13
-32.56
-42.44
-17.27
10.07
11.36
16.62
27.02
-2.93
-30.86
-36.51
-37.28
-27.31
-21.1
-7.61
-1.96
0.25
2.89
10.95
-13.26
-19.78
-1.07
-8.14
-15.57
-35.17
-31.77
-10.16
2.16
14.83
46.08
63.53
64.81
19.85
-19.36
-53.03
-80.57
-58.28
-28.11
-21.68
16.39
46.91
49.72
26.82
13.41
18.1
0.43
-8.93
-6.06
13.87
29.35
14.25
-25.5
-15.76
-4.58
-39.39
-54.64
-23.06
18.96
43.25
30.22
37.33
37.69
22.11
5.54
37.32
70.76
41.54
-3.15
-21.32
-27.26
-22.29
-24.7
-17.44
-37.53
-51.21
-39.43
-33.28
-32.53
-10.63
10.99
15.66
12.06
-0.94
8.97
47.09
54.13
17.86
-3.94
-0.35
3.31
12.27
17.62
7.98
-12.42
-24.94
-36.92
-63.04
-55.67
-15.91
17.09
27.39
13.58
23.86
33.46
6.6
