33.23
22.05
4.13
-9.01
10.17
42.71
42.2
34.08
-3.09
-78.7
-163.01
-139.56
-38.63
55.27
58.28
6.1
-14.36
18.21
21.08
6.6
15.78
52.21
36.45
25.44
27.87
-8.18
-28.34
-54.35
-73.07
-12.17
-2.32
-10.96
5.17
21.41
19.14
-19.15
-19.13
22.99
50.26
31.07
-9.21
-21.5
-2.23
37.13
38.72
23.2
0.84
2.4
5.35
-1.2
15.17
22.97
-12.92
-23.85
-15.88
-15.92
8.9
21.51
4.16
20.69
29.94
52.85
48.18
28.33
20.23
28.29
13.93
-13.76
-30.17
-9.85
14.04
9.64
2.11
-10.5
-20.55
-22.1
-42.76
-44.77
9.42
65.51
31.53
-4.91
21.97
46.13
42.59
36.88
20.75
13.05
-3.25
-23.53
-43.77
-19.74
9.11
-0.93
-12.48
-11.83
-1.45
4.41
-22.44
-42.93
-30.32
14.14
23.13
-3.48
-12.19
0.68
-3.53
-56.95
-62.72
-18.41
3.16
6.49
-1.89
-43.38
-44.35
-2.66
12.77
17.88
20.33
16.34
-6.51
-18.45
4.3
34.92
14.12
-4.95
-11.06
-11.58
-0.44
2.8
-50.17
-77.63
-37.9
2.3
17.45
-20.03
-67.32
-22.77
2.96
-7.14
-24.02
-43.68
-23.57
12.24
14.96
20.64
6.81
9.01
25.9
-19.8
-25.36
1
18.39
29.78
32.65
16.94
13.82
1.92
-2.67
-2.75
-4.02
-1.47
0.77
-9.45
9.14
24.33
20.56
-32.69
-30.74
24.47
22.4
-2.31
-4.19
-18.44
-4.5
25.64
28.98
8.75
-13.18
-18.62
-2.51
9.12
-6.16
-5.11
17.69
34.93
23.94
21.64
24.3
13.75
-25.88
-30.17
-34.47
-48.84
-48.2
-37.77
-18.32
4.63
11.49
24.75
-5.71
-11.45
-2.99
5.75
-14.66
-0.01
41.79
33.63
-0.63
-49.24
-51.87
-28.97
-37.23
-52.22
-19.96
-10.59
3.35
42.82
31.48
-21.82
-28.16
14.47
45.62
56.6
55.11
27.66
-35.22
-76.87
-66.96
-32.95
-1.09
-28.33
-35.81
-2.46
25.75
40.43
20.63
16.69
18.06
13.93
11.43
25.08
4.86
9.54
15.06
31.41
35.36
38.57
41.17
20.56
12.29
-5.54
-34.02
-13.02
-4.63
-17.44
-40.13
-63.73
-34.25
-20.61
-18.47
-14.92
-4.39
-9
-32.28
-16.49
11.52
38.38
59.16
28.63
7.6
5.29
4.26
-29.09
-78.22
-78.16
-64.93
-31.61
3.5
58.12
47.7
45.05
44.32
11.86
-17.76
-13.08
17.73
43.5
36.4
13.13
2.04
3.15
-0.89
-52.22
-105.46
-100.6
-19.78
0.81
-8.58
-3.88
-12.77
27.39
50.36
24.19
-2.09
-22.34
-11.78
29.42
56.7
35.94
15.88
12.65
-6.81
-41.28
-20.91
-13.52
-4.66
-5.15
-1.2
24.87
38.04
17.89
-20.7
-32.93
-17.54
31.31
17.54
-34.66
-4.75
34.66
0.78
-5.38
27.62
43.49
13.88
-15.13
-14.07
-4.6
4.88
6.53
-4.19
-20.86
-5.83
-11.5
-71.59
-72.05
-16.17
12.56
12.39
-2.78
3.94
53.41
70.61
49.56
16.82
-5.67
1.38
3.56
-23.44
-36.67
-22.29
-33.87
-12.07
-40.94
-52.77
21.21
49.38
14.63
-17.64
5.93
50.24
79.82
51.67
-47.88
-64.74
16.6
46.64
14.2
-17.33
-68.12
-72.35
-47.12
2.72
18.65
36.74
86.68
24.23
-56.21
-93.96
-48.42
-2.37
53.78
90.19
84.01
72.71
11.43
-32.19
-42.66
-22.59
-46.93
-41.94
-83.8
-76.17
0.35
30.69
9.35
-0.15
40.05
41.96
17.84
-3.73
29.31
27.31
23.07
41.21
40.99
21.22
-20.81
-32.08
-48.58
-86.39
-76.94
-71.22
-54.4
-46.25
2.92
20.98
-1.8
40.09
22.49
-3.07
-20.37
-25.48
-35.87
10.11
35.65
37.6
15.15
6.17
31.98
25.44
-24.25
-43.7
-38.37
-9.79
-18.54
-31.34
-21.85
2.01
27.9
44.78
14.34
-14.48
-19.56
-28.59
-41.33
-71.6
-32.99
-8.92
49.24
68.86
0.49
-39.3
9.65
73.91
62.29
14.43
-51.59
-52.61
-34.56
3.23
38.31
61.81
40.47
29.8
27.38
11.29
8.4
16.8
13.97
-5.5
-66.63
-91
-64.18
-41.6
-27.12
-28.38
-35.98
25.33
39.06
19.98
1.92
-3.65
-51.16
-80.19
-29.12
42.04
70.32
50.07
-9.58
-0.26
-40.56
-87.17
-95.09
-83.51
-57.84
12.42
89.59
40.44
-16.7
18.11
44.81
35.21
10.21
-24.23
-43.9
-51.32
-17.73
14.46
49.04
45.46
22.78
-24.29
-5.48
-17.8
-108.3
-102.1
-27.37
44.09
76.96
57.31
47.7
45.67
16.99
8.03
17.24
9
-6.52
-20.13
-21.5
-18.1
-35.79
-25.38
-31.69
-3.09
-9.75
9.91
42
52.32
12.63
-64.5
-81.33
-36.96
3.22
-0.2
30.07
54.23
62.7
63.7
27.33
-21.26
-12.27
22.9
-8.88
-39.55
-83.62
-104.43
-86.32
-36.52
7.66
40.39
40.72
74.81
98.35
78.01
-3.06
-92.78
-92.05
-47.96
-51.82
-21.03
36.87
43.3
43.89
35.43
8.31
-20.48
-5.3
-9.75
-17.01
-10.84
12.74
17.24
24.27
-25.82
-63.47
-105.22
-88.11
29.59
100.02
75.65
40.28
20.65
4.29
-3.56
-20.79
-37.43
-35.51
-49.77
-65.89
-16.15
-35.98
-78.81
-102.41
-31.9
36.39
53.96
66.31
55.32
56.57
35.42
2.26
9.32
10.47
-38.76
-88.27
-106.76
-62.68
30.13
70.38
50.35
23.59
-7.4
22.38
8.26
-19.28
0.43
46.57
58.79
2.05
-32.34
-31.8
-9.39
-9
22.7
48.57
-13.57
-33.68
-15.89
-51.09
-66.25
-42.64
-34.39
-20.7
13.66
20.19
36.55
32.13
52.21
71.1
43.8
0.44
-1.37
12.22
-19.8
-27.72
-3.95
-0.36
-49.31
-72.83
-46.47
-60.16
-48.13
23.9
35.62
-0.21
7.75
68.05
72.17
27.62
-17.67
-40.78
-106.18
-105.41
-75.36
9.63
50.85
10.37
-4.74
16.57
47.3
32.9
58.01
62.66
56.7
64.95
27.29
-32.65
-55.04
-48.54
-46.25
-90.65
-76.58
-16.67
21.66
12.65
29.01
41.05
43.33
40.01
42.46
7.42
-23.67
-5.98
-0.25
11.28
-62.96
-92.49
-43.68
19.6
46.81
47.33
34.83
49.02
59.03
19.32
-30.51
-17.42
-65.35
-122.46
-104.52
-70.61
-33.09
5.65
39.51
18.05
32.86
33.62
40.01
-1.84
-31.45
22.42
50.62
14.08
-27.75
-45.35
-24.7
-1.91
3.85
-8.39
-12.89
-2.26
13.47
44.42
7.1
-18.38
-50.81
-25.07
56.68
5.33
-104.73
-66.16
7.4
24.4
11.44
16.85
62.87
63.21
26.87
-12.21
-10.95
29.93
47.27
5.83
-93.43
-155.28
-113.11
51.84
101.26
55.51
9.79
30.65
51.03
45.99
8.05
-8.36
-5.57
-13.13
-26.55
-38.89
-81.85
-67.84
-26.58
51.34
83.82
43.15
-19.37
-64.26
-36.54
-8.1
6.82
32.78
66.2
16.74
-51.55
-53.13
-8.92
-24.52
-30.72
-30.82
0.3
8.8
42.26
27.84
14.32
-7.78
-1.14
16.77
48.94
60.87
16.47
-11.64
-59.04
-50.36
-60.7
-31.85
-1.73
41.64
38.53
-68.44
-122.5
-119.27
-43.91
80.73
96.56
23.55
-13.43
-50.22
-19.58
93.26
62.27
-15.28
-60.3
-39.85
32.4
30.72
-21.69
-35.73
-27.28
-36.54
-84.44
-85.36
-53.43
47.03
102.53
85.62
20.37
-26.3
-8.92
56.41
37
10.01
-2.42
-42.51
12.98
12.88
-63.85
-16.81
35.32
20.79
-13.86
-13.78
16.15
11.05
-47.11
-87.42
-60.11
15.82
45.44
28.39
-13.36
-13.54
22.69
32.31
29.11
24.75
9.73
-55.28
-110.52
-106.55
-9.41
41.27
25.87
-23.4
-50.3
8.65
-11.36
-109.32
-59.48
2.03
49.99
32.99
20.75
36.04
28.97
76.11
78.34
29.4
47.28
32.86
-21.91
-19.72
22.49
21.3
-24.03
-79.44
-52.31
-17.65
-41.12
-42.04
6.98
30.95
-28.63
-17.82
16.78
32.45
36.67
44.7
5.97
13.6
28.85
29.08
12
2.33
-6.39
-30.37
-72.04
-74.86
-50.86
40.53
87.3
22.84
-63.46
-47.56
25.01
26.26
-3.84
-51.74
-58.07
-22.53
-26.92
-65.84
-31.22
-14.3
-12.5
2.39
-1.89
80.55
110.31
52.49
-23.99
-30.99
0.08
26.8
18.53
-20.48
-11.39
-1.71
-11.78
-36.52
-85.44
-70.43
18.75
57.29
48.14
-29.31
-24.58
15.35
35.52
21.16
39.85
27.82
-3.49
-31.59
-33.5
-16.88
46.02
69.91
84.7
28.58
-13.33
-2.44
-14.7
-58.25
-91.57
-77.36
-9.91
57.21
52.88
34.15
-0.58
-19.3
0.05
-9.13
-17.92
5.06
42.39
44.67
-12.93
-26.33
-22.14
-27.71
-43.41
-12.05
-31.86
-85.23
-121.38
-14.64
25.94
10.59
-13.5
23.05
57.49
21.78
20.8
22.41
-18.3
-3.11
14.1
-14.36
-39.44
-16.24
37.3
2.3
-14.27
-52.48
-86.41
-51.35
16.77
81.78
69.02
27.69
-3.2
-22.33
-2.77
0.59
37.59
74.67
9.39
-37.52
-55.92
-76.45
-79.83
-78.16
-24.73
45.61
58.07
54.78
58.98
33.59
-8.27
-54.09
-37.32
14.33
59.51
40.46
12.84
7.94
8.23
-2.48
-10.96
-14.55
-21.7
-3.83
3.36
-48.63
-75.97
-39.41
44.66
105.75
99.09
44.18
6.4
3.59
-0.89
-7.09
28.76
27.51
3.95
-32.47
-63.81
-51.62
-24.76
-2.68
24.01
49.15
54.7
-18.22
-82.69
-55.31
-20.17
-49.79
-41.34
-16.98
17.42
67.83
77.24
28.31
-49.97
-72.31
-65.77
-40.02
2.33
-13.97
-44.29
-74.71
-44.45
-21.4
63.98
62.17
29.16
47.83
20.24
7.81
24.48
-38.18
-18.31
-9.34
6.32
-6.53
-36.55
-14.19
7.25
23.25
39.02
63.75
28.42
3.67
19.05
12.77
6.12
-1.71
-45.21
-48.62
-14.91
16.78
49.26
63.89
49.33
11.81
-0.99
-34.08
-94.63
-104.93
-53.27
23.8
30.14
-48.37
-64.65
-32.6
-11.65
1.5
-24.97
-33.72
15.46
32.1
51.57
74.31
93.26
50.37
-16.82
-14.7
12.72
3.83
-21.43
-76.12
-39.46
15.86
33.48
14.79
22.78
38.72
30.87
-25.03
-45.07
-13.86
-11.52
-63.5
-110.3
-79.34
-12.55
56.85
88.81
75.85
80.46
22.53
-18.85
-0.79
-25.75
-34.03
17.35
-2.01
-45.31
-58.75
-58.39
6.22
65.32
59.3
15.75
-12.17
17.41
38.73
24.42
8.47
10.49
5.4
-7.33
24.52
-18.19
-70.82
-62.51
-39.22
-3
6.99
-22.54
-30.73
-12.61
25.86
39.5
20.93
-10.11
-41.2
13.52
47.7
45.99
-12.84
-23.46
-34.12
-38.14
-65.44
-50.08
12.75
6.71
-21.8
-27.57
-19.77
3.06
-9.88
7.79
17.52
26.35
72.92
78.01
49.12
38.45
12.29
-21.58
-100.28
-129.48
-79.43
7
44.58
81.99
53.88
-16.21
-87.21
-66.28
19.17
85.16
77.39
23.15
21.15
-20.57
-49.73
-22.31
12.18
31.97
30.32
24.06
-30.88
-15.5
12.82
4.43
-12.4
1.68
22.47
23.11
16.45
8.4
31.5
32.42
-34.87
-51.4
-47.01
-34.74
-22.78
-11.96
47.77
76.7
56.13
-9.15
-72.79
-35.84
-15.94
-53.22
-27.9
0.38
22.02
50.87
9.09
-62.55
-72.18
-39.66
-10.24
-5.18
8.3
3.65
40.31
63.21
58.68
11.06
-48.93
-44.36
11.25
11.97
14.41
23
62.3
2.89
-77.98
-84.48
-45.95
0.41
29.12
38.32
28.12
-0.98
-13.43
31.26
18.02
-29.28
-32.69
-12.89
11.58
2.48
15.02
12.5
-3.84
-58.14
-42.95
26.74
29.37
-21.4
11.86
27.37
15.84
14.39
16.89
26.51
19.64
3.56
-28.74
-52.9
-38.67
9.04
7.76
-19.96
-16
-2.92
17.51
14.91
-23.54
-40.79
-54.09
-25.08
5.56
47.95
47.18
-1.51
-34.31
-2.58
17.95
27.99
23.59
15.35
-7.48
8.68
12.74
-34.91
-105.76
-76.58
-9.24
2.08
6.48
32.64
37.89
18.42
51.98
54.31
22.7
-14.02
-8.39
-30.32
-70.21
-101.12
-61.18
-13.76
-9.42
48.08
49.65
42.78
34
-7.27
18.42
53.39
58.11
21.23
4.57
-42.47
-59.4
-7.38
37.41
21.53
7.79
28.6
36.25
25.46
-24.04
-21.41
-59.31
-78.15
-81.27
-34.64
22.99
55.11
10.6
-8.74
33.62
51.72
37.87
39.77
14.52
-19.89
-11.61
-2.69
-1.79
-91.82
-164.08
-66.54
10.62
-9.3
-18.35
57.53
96.63
83.43
35.11
-17.1
-27.93
-9.24
4.21
8.63
-39.67
-21.71
17.22
23.93
34.06
34.2
50.74
25.5
15.11
10.11
2.49
0.53
-6.71
-27.99
-12.8
16.16
31.27
-10.1
-48.19
-11.37
-1.35
10.4
11.39
-10.78
-24.79
-29.39
-18.14
7.09
39.95
19.68
-0.17
-17.11
-5.93
-12.14
-21.59
-37.35
-28.28
-9.36
47.37
31.34
4.47
1.72
11.63
-23.76
-74.97
-60.37
-8.1
47.33
44.42
-40.55
-59.85
7.75
53.01
29.26
0.35
1.99
23.2
44.73
67.38
48.4
2.46
-26.79
-33.8
-55.99
-76.26
-61.37
-98.38
-101.71
-35.13
78.1
111.08
90.29
58.41
-4.62
-20.1
-17.19
-33.08
-39.83
11.3
2.27
-5.03
-39.61
-77.66
-24.34
19.82
39.12
69.72
9.22
-38.05
-12.35
-0.5
13.66
8.21
-6.83
30.75
77.74
75.44
43.42
34.94
22.28
0.64
-11.31
-27.77
-56.05
-56.81
-22.87
32.7
39.38
0.83
-21.32
-12.59
3.88
7.25
-37.31
-61.32
-28.5
24.87
47.68
15.53
-7.29
-6.84
15.09
19.19
7.72
-24.37
-71.29
-92.4
-23.59
26.21
-7.32
-22.09
0.83
9.34
-1.01
-10.72
-25.68
-19.93
-1.15
26.79
54.85
54.96
67.58
23.52
-10.06
-28.52
6.18
-11.91
-57.71
-6.16
-14.48
-24.78
-31.54
-21.47
-3.78
4.91
20.21
24.15
36.91
37.28
10.3
-2.56
3.62
5.71
-15.98
-28.97
-1.29
-11.63
-45.45
-53.96
-36.02
16.25
8.79
-12.1
-44.83
-38.94
-12.2
15.84
17.81
-6.31
-13.61
-18.78
-3.99
4.49
29.21
63.33
43.07
4.19
-30.02
-100.27
-97.45
-71.22
-20.89
-10.61
-15.5
39.47
96.48
101.24
66.68
51.62
87.13
45.73
20.66
-2.26
-62.45
-49.09
0.19
1.69
-34.77
-67.22
-36.45
-5.34
-1.82
-15.64
-36.93
-21.47
19.94
-4.02
-9.64
-2.57
-38.53
-48.03
14
73.24
26.39
4.14
22.46
41.21
35.94
-16.04
-56.83
-34.17
-3.86
-18.89
-15.62
-15.47
-56.96
-51.51
-40.92
17.57
53.45
22.71
-12.71
-53.77
-29.03
12.25
76.61
92.92
31
-42.15
-17.58
-3.25
22.94
-2.6
-2.1
-24.09
-66.59
-63.59
-37.91
39.82
70.72
44.88
6.47
-16.98
4.72
25.97
20.81
51.92
27.46
6.64
-84.07
-161.64
-116.3
-10.02
17.99
22.45
80.64
91.5
49.78
27.12
18.21
0.84
-14.83
-1.71
23.42
41.64
16.77
4.4
10.83
-19.52
-60.79
-64.63
-34.55
3.18
1.71
21.8
-7.63
-40.53
-5.4
18.95
-19.05
-30.27
12.19
62.54
67.5
11.61
-18.72
5.35
5.51
-15.99
22.12
31.95
29.76
-23.64
-62.1
-63.33
-26.41
6.11
-20.19
-34.48
-19.15
15.38
22.25
33.26
30.98
52.69
5.22
-18.74
-0.56
-10.55
19.2
33.36
-11.3
-29.83
-31.02
2.38
-4.69
-17.43
-13.76
20.11
51.21
42.93
-10.11
-70.44
-51.83
-16.69
-5.7
7.42
-0.96
25.98
29.27
27.5
5.45
-34.91
-62.19
-60.15
-12.15
27.21
27.97
19.89
17.25
27.7
-4.95
-66.78
-76.58
-63.89
-45.58
51.33
61.17
39.59
44.89
-2.18
-24.94
34.68
-5.36
-67.22
-73.83
-30.27
12.14
-9.18
12.14
49.31
62.37
56.5
21.77
-21.57
-24.67
23.84
39.6
-4.73
-22.22
-21.74
11.44
40.53
34.9
39.22
15.4
0.47
-16.8
-15.63
-1.91
29.95
12.97
-10.26
-37.44
29.8
48.17
14.18
-6.36
-38.22
-12.85
40.73
37.57
35.16
-22.49
-66.67
-19.88
6.42
19.29
26.87
18.33
32.66
34.73
31.67
5.11
-34
-54.12
-48.05
-45.11
5.72
52.85
57.72
29.46
-14.83
-48.39
-56.63
-52.64
-38.84
-16.33
13.31
49.4
70.34
69.36
-27.56
-114.56
-102.41
-57.98
-11.94
16.26
-4.45
-21.73
36.33
42.95
8.54
3.19
72.4
61.13
-23.1
-108.34
-106.94
-17.53
-1.71
-0.51
75.33
88
60.09
31.83
-56.82
-68.29
-49.84
-25.93
7.99
40.02
43.06
-2.73
-15.14
-21.94
-53.75
-54.22
-34.5
12.54
45.22
46.53
12.46
0.62
48.7
49.79
14.52
-23.5
-8.21
21.9
-43.14
-74.45
-12.35
12.16
12.5
34.21
26.63
-18.31
-31.26
-28.14
-39.78
-22.55
4.92
-11.77
-11.11
12.19
30.12
33.4
25.44
16.59
16.91
30.79
15.41
-2.58
-13.73
-36.84
-70.27
-21.24
47.21
48.11
33.43
-9.52
-27.49
-8.76
20.61
23.31
-8.14
-39.91
21.36
22.81
3.26
8.86
13.09
20.37
-9.1
-10.38
27.01
1.42
-46.04
-52.92
-25.07
-54.59
-65.07
-18.07
26.11
63.43
66
52.47
17.16
12.33
39.9
50.44
40.28
35.36
5.88
-80.57
-108.77
-30.9
10.1
22.01
3.25
-7.42
-29.58
-48.43
-13.98
24.78
9.62
-58.41
-43.22
9.59
33.19
27.49
22.61
21.86
17.5
-14.03
-19.49
-18.69
0.66
33.61
51.86
24.31
1.72
21.61
9.49
-29.22
-62.21
-14.33
42.06
12.46
-31.35
-25.25
-25.15
3.11
36.72
19.03
-21.25
-35.5
14.97
41.38
11.03
-9.08
3.58
-14.44
1.28
2.63
24.36
45.58
56.18
54.59
26.87
-16.75
-27.98
-31.01
-20.77
-14.94
-18.95
-10.38
-0.53
-18.92
-24.45
-51.34
-75.53
-10.97
29.32
45
34.24
-14.43
-20.55
21.56
36.27
-17.02
-109.83
-95.78
-17.01
58.5
49.95
16.5
34.88
49.77
29.95
11.42
-19.54
-29.11
-13.84
-13.94
-23.75
5.66
77.26
54.95
1.46
-11.18
-4.49
27.95
28.63
5.86
-26.67
-33.79
-6.74
-14.11
1.79
24.61
27.08
33.98
29.04
16.54
2.36
-0.94
-24.73
-24.56
-5.75
-19.7
-53.18
-53.77
5.34
74.74
45.35
20.71
-4.15
-10.28
7.48
-18.61
-46.01
-35.54
5.6
38.29
46.86
40.02
11.23
-26.6
-29.25
52.18
73.92
26.45
1.17
12.05
12.3
8.98
-3.38
-32.35
-37.2
4.16
12.41
-12.47
-79.9
-99.33
-64.28
-57.01
-32.3
-4.61
36.64
33.16
7.12
-22.13
-44.55
9.61
33.12
27.25
13.61
1.29
-28.53
-33.28
4.09
46.98
31.04
-30
-9.54
33.73
4.97
2.24
52.31
70.82
14.7
-23.69
-41.62
-40.39
-52.97
-102.06
-107.47
-65.35
20.3
74.68
37.38
9.77
41.41
26.68
38.34
31.41
12.8
-4.72
28.33
54.65
40.48
14.36
-9.32
-2.9
-18.46
-40.05
-28.58
-18.36
-34.1
-57.01
-80.01
-52.96
-37.66
-16.68
1.55
26
48.86
76.22
44.62
2.29
35.54
30.55
-33.96
-66.84
4.11
15.46
5.5
4.62
11.74
4.9
-1.64
0.44
32.51
23.33
-79.6
-104.02
-39.94
17.84
12.56
4.18
0.29
26.34
88.67
72.97
11.42
-46.51
-27.11
7.25
8.43
12.9
42.44
54.12
11.79
-29.59
-53.51
-30.98
-53.56
-39.01
2.21
-2.82
-32.88
-19.65
9.19
32.21
37.66
20.42
10.99
44.44
50.19
-12.96
-49.13
-78.78
-104.38
-42.6
-2.32
-14.64
30.59
66.4
68.32
50.27
44.81
30.45
47.46
61.93
45.1
3.94
-7.7
-22.12
-66.17
-65.96
13.77
21.8
1.08
-36.47
-58.5
-40.12
4.64
38.33
31.49
39.2
40.38
-21.74
-98.11
-73.7
-4.85
47.78
41.67
-8.51
-22.94
7.98
19.71
14.41
42.94
15.29
-5.23
19.02
25.83
11.77
4.68
-16.66
-3.4
-28.42
-61.31
-73.57
-18.33
23.99
28.61
23.85
34.91
56.15
29.47
-12.44
-38.22
-39.14
-34.4
-28.55
-9.26
9.76
39.39
54.45
21.94
-61.09
-53.52
-12.14
-2.55
-11.5
-27.04
-29.25
4.32
9.75
0.89
-6.52
-20.58
-11.19
-2.27
30.9
49.48
17.25
-7.99
-11.07
-3.48
-2.61
32
33.34
-20.37
-44.6
33.34
37.41
8.14
-34.07
-26.36
24.2
25.9
16.3
-8.08
-66.39
-80.48
-77.2
-13.38
-5.92
8.7
53.35
60
37.69
35.58
67.39
54.14
16.73
21.32
32.53
52.48
8.87
-42.23
-39.77
-40.15
8.62
62.97
-30.69
-64.08
-49.56
-55.97
-74.07
-14.42
83.25
110.36
58.03
30.5
33.8
21.87
10.26
-23.47
-59.58
-63.83
-21.88
-32.12
-47.2
-46.6
-33.13
-2.06
-23.71
-1.05
54.67
60.54
31.32
-10.65
-39.33
-34.28
-10.05
21.94
52.51
46.83
23.09
17.11
3.37
-32.11
-37.54
-32.7
-61.49
-82.44
-16.89
23.56
31.05
27.06
5.93
3.35
16.47
20.66
49.35
19.15
-6.98
-59.21
-90.06
-57.67
-4.53
-8.15
-10.48
11.98
54.59
54.94
39.11
-24.36
-100.92
-55.96
34.03
79.55
78.66
21.9
6.32
-15.07
-38.16
8.38
46.25
16.77
-22.46
-11.98
17.13
13.16
-4.75
-29.39
-35.2
-12.86
19.21
29.93
51.82
66.44
32.21
-28.11
-6.82
61.09
54.22
-6.03
-69.34
-109.04
-74.97
30.54
55.21
40.92
40.88
37
3.45
-39.29
-47.52
-10.13
3.43
2.66
-26.72
-19.97
-32.43
-22.03
3.9
49.16
82.88
36.36
-41.75
-54.65
-53.73
-69.52
-77.04
-39.91
-8.04
30.82
64.43
77.36
62.06
48.93
46.4
26.99
3.53
-9.73
-16.8
-3.67
-8.89
2.18
25.76
-8.36
-39.6
-46.76
-62.06
-55.42
-54.34
-11.51
16.84
26.89
35.1
49.55
68.99
91.15
40.41
-43.67
-74.54
-63.18
-11.98
36.43
46.35
15.69
-25.02
-47.33
-45.44
-22.89
-3.49
-7.24
-9.93
-9.86
-12.56
9.01
17.34
-20.33
-72.1
-48.21
22.15
51.54
38.03
-1.2
-12.08
6.05
3.4
-6.49
38.34
46.04
-36.86
-51.24
-16.44
1.18
-14.06
16.07
19.76
30.6
88.94
64.84
26.53
12.22
12.14
-26.62
-30.78
-12.57
-11.54
-44
-58.16
-26.18
-14.55
3.77
-0.18
17.14
31.58
-20.11
-48.88
-38
-10.57
6.21
-9.36
-40.74
-0.29
63.22
72.59
50.26
-2.53
-51.55
-20.21
45.37
25.27
-42.99
-39.24
1.68
10.64
34.29
25.32
1.54
-0.18
2.03
10.06
14.51
4.07
-5.31
-29.81
-16.89
16.18
38.84
46.52
16.66
6.54
11.45
19.26
7.95
-26.85
10.98
17.57
2.38
-18.57
-39.23
-36.85
9.74
9.96
5.38
4.9
-0.85
29.39
6.68
-41.15
-37.54
5.38
10.45
6.25
-13.33
-27.96
-25.94
-1.86
38.73
35.21
27.32
25.84
0.76
9.26
17.59
0.18
-19.23
-12.8
-11.91
-35.39
-42.16
-24.54
21.36
38.35
28.64
8.79
-26.04
-88.71
-49.93
30.02
31
29.63
8.53
0.48
2.52
1.92
8.1
5.29
4.44
45.61
65.96
43.95
-15.17
-74.08
-85.33
-58.42
-41.81
-18.54
-30.29
-41.04
-32.93
10.35
77.94
105.81
69.21
36.79
31.22
19.06
9.33
46.23
35.02
-29.89
-68.65
-46.92
-34.3
-34.11
-6.16
24.66
26.26
-2.75
-14.96
18.12
30.1
-2.53
-5.76
-1.98
-9.45
-1.62
45.45
30.25
-12.68
-49.25
-24.32
-23.88
-24.14
-27.64
1.84
-31.85
-3.68
41.56
49.49
7.17
11.82
64.22
69.81
70.95
44.21
2.54
-12.74
-19.13
-32.31
-32.7
11.45
0.45
-7.26
-15.85
-65.57
-74.25
-26.98
-19.39
-8.46
26.7
-1.21
-29.18
-35.13
-18.49
0.34
26.64
-60.69
-90.37
22.1
119.27
99.49
66.61
45.75
17.48
26.61
43.01
6.59
-13.58
-15.87
-18.53
-15.98
-12.62
-0.36
31.41
23.05
-39.08
-67.3
-37.87
5.76
32.46
35.74
5.39
-27.87
-41.61
-33.19
-10.69
3.16
24.91
29.47
12.99
-45.18
-39.55
8.22
19.03
14.04
6.28
38.52
7.73
-79.58
-110.43
-20.9
64.63
100.49
47.66
-21.67
-23.62
21.78
0.53
4.6
7.53
13.53
26.55
22.63
-31.85
-68.44
-6.67
40.87
37.91
8.55
-20.27
-43.6
-67.47
-49.76
15.54
73.24
104.51
55.9
-18.48
-34.85
-24.87
2.76
6.05
-21.14
-56.18
-58.61
19.2
1.97
-45.94
23.48
68.18
74.69
53.98
-4.01
-43.46
-55.6
-45.19
-15.8
39.91
43.78
-23.03
-26.28
7.04
-2.83
-54.04
-51.39
18.6
85.93
76.86
42.76
30.68
25.14
26.43
53.31
24.37
-5.74
-41.7
-113.01
-120.62
-67.73
-33.84
4.94
54.56
56.39
39.2
33.45
30.35
19.12
18.09
-5.24
-12.56
9.75
37.77
19.95
-3.3
-62.32
-76.79
-42.85
-17.51
5.45
24.86
23.34
-34.18
-39.03
-28.45
-8.43
-5.13
-33.09
-19.76
18.11
52.28
83.17
74.83
29.75
-46.96
-29.41
14.02
-14.71
-46.22
-25.3
-6.42
-54.39
-49.07
6.92
60.96
56.66
26.61
-9.33
-0.73
23.46
77.39
64.54
2.99
-31.15
5.05
8.84
-36.09
-68.62
-79.36
-38.45
14.05
42.61
19.76
32.97
38.82
-2.13
0.52
-28.76
-15.78
21.52
27.19
22.35
16.47
8.4
13.16
-9.84
-25.89
-26.24
-11.05
-4.74
-16.95
-10.45
-39.09
1.93
28.22
11.57
-6.33
-67.82
-99.27
-23.52
39.47
41.03
61.66
52.31
35.99
20.22
-21.59
-40.41
-25.95
-8.85
-1.24
-23.56
-43.12
-2.64
44.4
59.19
46.83
64.46
109.66
116.71
41.32
-39.54
-70.12
-46.29
-8.73
-14.48
-65.11
-6.52
-25.6
-52.38
-35.47
-14.89
21.73
30.81
6.02
-3.73
31.11
43.29
-7.05
-6.68
25.35
18.86
-6.42
-40.42
-23.84
-0.98
-31.57
-62.83
-67.11
-22.48
-3.2
-2.01
17.94
43.39
-38.22
-63.43
19.72
35.71
17.18
56.46
67.54
21.71
-54.23
-64.55
-5.01
-28.27
-81.61
-17.46
44.59
75.16
55.61
43.37
31.95
32.24
9.33
13.41
27.52
19.19
4.47
14.51
20.38
-8.67
4.96
44.34
-71.01
-87.25
-54.07
0.63
27.41
14.1
15.14
-4.41
-13.4
-11.82
16.4
63.91
11.36
-27.53
-12.72
-23.93
-22.55
-32.84
-55.09
-16.36
38.9
44.62
16.76
7.8
6.75
16.3
8.34
-27.26
-45.32
-12.27
14.17
-64.84
-67.38
-15.77
-14.49
3.29
35.91
37.77
22.42
25.53
50.94
16.31
-37.93
-53.34
-71.45
-57.62
-12.42
24.19
75.7
63.22
20.3
19.6
-6.3
-9.8
-28.82
-88.72
-74.86
34.99
72.34
58.63
30.46
-0.6
-12.57
-3.98
-15.02
9.16
3.96
-17.34
-54.59
-31.83
-10.48
5.53
-29.47
-45.52
-9.67
26.68
10
-16.16
8.97
40.4
43.75
42.41
25.17
36.44
-2.21
-72.69
-56.26
-10.73
19.12
21.19
24.15
31.1
53.01
17.45
-90.06
-172.45
-77.91
15.88
59.62
66.96
36.7
41.13
61.86
56.76
24.76
10.28
2.6
-44.49
-46.73
-39.2
-48.47
-44.98
-13.8
15.33
-45.04
-66.21
7.84
19.62
31.95
80.95
72.46
9.65
-20.41
-28.09
-20.81
-3.3
22.62
22.69
-14.47
-20.78
-32.05
-59.58
-29.52
7.25
1.01
-23.86
-0.29
29.94
21.12
39.15
44.8
6.66
10.75
30.62
53.69
14.37
-17.62
-33.29
-29.23
-58.32
-50.13
-6.67
36.64
24.86
19.54
13.07
-17.02
-80.31
-66.6
-1.09
37.52
37.93
39.17
56.92
68.29
-38.57
-75.69
-36.57
11.71
30.41
30.01
18.41
-10.02
-22.07
-52.83
-79.05
-18.65
38.6
10.02
-22.08
-29.49
-8.81
34.99
53.87
50.98
32.64
2.35
-3.93
7.86
31.37
-0.7
-60.64
-90.38
-17.93
51.71
65.62
28.62
28.25
25.59
3.03
-13.17
30.72
7.9
-67.9
-59.56
-54.73
-26.18
13.84
34.66
25.13
4.68
11.77
16.39
22.34
16.11
0.41
5.37
-61.27
-91.21
-41.48
5.25
28.55
35.44
18.64
12.43
7.26
31.43
49.5
25.27
-14.25
-19.72
-27.28
-39.52
-17.89
-33.31
-35.66
3.86
16.6
2.53
16.41
7.5
-18.35
-13.84
-34.39
-15.38
11.42
7.06
-0.47
34.06
52.17
62.27
52.17
31.78
23.36
7.78
5.06
-13.73
-27.5
-59.49
-81.08
-64.74
-31.67
-10.37
35.71
111.87
20.63
-47.43
-53.9
-28.86
8.93
13.46
14.24
6.82
-6.04
-13.53
9.05
5.36
-4.18
22.83
23.58
-11.02
-7.54
17.59
24.97
8.06
10.42
20.64
27.7
-2.84
-58.02
-110.64
-51.53
-11.92
19.61
31.08
0.54
-30.95
-33.62
-40.84
-29.25
2.45
45.32
37.47
13.15
10.73
27.62
22.05
11.43
2.25
24.43
36.68
10.32
11.12
-35.78
-46.76
-47.53
-11.74
18.31
20.07
-6.29
-5.6
42.79
42.74
-5.52
-17.01
-29.28
-11.32
21.15
34.87
-19.44
-4.45
23.37
-4.91
-36.94
-0.32
56.08
29.14
-55.4
-95.47
-80.26
-50.06
10.29
69.97
63.84
16.12
17.17
27.84
26.48
34.17
24.15
8.46
3.33
-3.68
-7.5
-28.53
-20.49
-6.13
-7.57
-60.73
-74.96
-11.58
-6.19
-12.45
-19.49
-23.44
45.99
54.62
33.72
13.68
-0.71
30.89
46.29
18.53
-8.34
-57.28
-40.44
-40.28
-33.27
-15.49
-21.44
30.76
58.42
46.06
42.76
42.45
37.72
31.97
3.67
-2.56
-12.14
-46.18
-56.81
-60.98
-8
12.92
-8.92
-28.98
-33.37
-30.91
-50.97
-20.47
25.87
28.03
37.01
62.21
63.18
47.4
27.29
-13.78
2.44
23.95
10.72
-18.52
-29.43
-24.5
3.97
30.95
22.81
-5.64
-15.14
-41.84
-59.06
-28.29
-7.12
-20.94
11.78
33.75
-4.27
-58.96
-66.57
-27.5
2.45
20.39
56.28
18.99
-35.71
-59.05
-7.37
27.45
-5.63
-25.46
-20.41
12.66
23.34
48.54
64.4
47.98
35.83
39.58
35.34
6.78
-6.5
6.34
3.68
18.23
2.02
-7.03
-9.68
-28.46
-25.06
-48.99
-59.7
-79.31
-80.17
7.34
5.85
-32.64
-50.89
-62.8
-13.27
37.08
86.53
85.68
41.77
12.77
15.36
15.2
-31.68
-29.97
-0.52
3.42
-9.34
-21.5
8.75
2.13
-22.06
-38.63
7.48
34.67
17.85
-15.14
-20.57
-9.79
-43.45
-12.98
32.65
14.26
13.39
23.86
16.92
-6.16
-28.39
-13.96
5.02
10.3
-13.35
-70.99
-52.77
21.27
69.74
59.08
44.81
51.47
44.25
22.2
14.42
12.65
-8.53
-27.95
-48.62
-57.32
-41.06
-2.92
5.72
-17.45
-15.46
1.59
-8.08
-24.59
13.21
40.74
49.7
22.75
25.12
18.64
-15.43
-36.33
-54.1
-30.52
-36.08
-33.4
17.03
6
-12.04
2
26.3
11.46
7.83
47.07
6.97
-42.18
-53.96
-5.72
49.46
30.51
-5.56
-7.68
-0.99
5.53
4.79
6.43
8.13
-22.58
-20.76
-8.93
2.45
24
11.84
-61.45
-47.04
-3.58
42.79
56.37
15.41
-30.13
19.37
10.72
-6.74
22.91
49.84
40.67
9.54
-13.29
-21.88
-16.57
-0.64
24.45
48.81
55.96
-34.7
-61.73
-31.82
12.8
-12.8
-22.83
1.5
-17.31
-20.95
-7.58
-8.54
-10.38
-36.5
-24.62
23.9
8.01
-29.04
-14.39
13.26
37.05
43.56
-5.32
-71.88
-39.13
-10.5
2.83
24.39
17.06
19.83
32
15.26
-14.04
-29.73
-74.06
-64.13
-1.58
25.67
30.93
6.1
11.15
22.02
18.95
14.03
17.74
9.77
-21.99
-26.78
0.68
4.12
-19.36
-9
41.47
50.02
-14.87
-33.7
-58.04
-67.49
-52.63
-20.62
19.92
50.14
76.76
71.54
50.27
-18.44
-49.59
10.9
32.47
32.12
31.83
28.99
7.87
2.6
-9.23
-25.96
-34.19
0.01
9.42
-23.95
-42.21
-11.7
17.36
16.06
53.96
52.25
-2.43
-50.67
-67.55
-36.87
27.33
4.1
-31.58
19.44
61.19
-10.89
-50.04
-27.54
-17.27
7.95
38.34
42.28
-5.8
-26.12
-11.36
16.94
54.96
42.59
17.95
19.2
14.7
-20.5
-78.53
-101.33
-70.23
-17.77
-13.93
3.4
50.87
28.17
7.37
16.17
14.81
23.59
18.15
5.84
-18.29
-23.04
-9.72
1.44
16.31
32.86
-8.83
-51.2
-40.82
4.83
-24.99
-56.13
-50.66
-15.31
20.8
36.2
53.9
33.76
-13.94
-19.89
10.45
25.66
12.07
29.68
47.1
20.34
-10.15
-1.71
7.99
16.08
34.04
31.54
12.03
-12.3
7.7
2.48
-38.31
-54.41
-50.42
-17.9
-2.55
9.33
8.74
13.15
-2.84
-28.01
-9.45
11.77
-0.77
-9.34
7.69
10.92
5.1
-12.12
-26.62
-30.32
-11.32
11.82
31.13
49.57
31.95
-0.37
-14.21
-4.42
1.95
-1.9
-20.83
-55.93
-56.04
-21.15
-16.79
-16
6.33
13.47
8.81
-4.54
35.9
32
4.78
-12.3
1.84
21.74
-1.13
5.36
56.67
41.73
45.64
28.21
-21.78
-44.84
-55.86
-70.14
-83.13
-50.78
17.49
26.62
-11.77
-25.83
-15.76
28.65
26.74
18.67
28.77
41.68
47.93
32.29
21.39
-1.64
0.93
37.58
15.17
-26.81
-72.08
-21.21
10.03
2.15
-36.61
-40.53
-25.87
9.95
48.5
12.87
-14.96
-40.04
-48.54
-62.11
-49.28
48.32
81.81
19.55
-30.07
-45.24
-49.06
-17.09
-5.37
7.9
7.32
-13.52
-5.12
-30.52
-30.67
-17.13
-11.38
26.18
76.6
68.94
47.95
48.99
18.18
-19.56
-35.19
-5.73
-62.31
-64.14
-20.03
-0.34
28.15
7.32
-22.59
-21.71
17.36
27.12
4.67
-18.81
3.89
48.56
39.32
9.92
-10.96
8.67
37.66
32.82
31.41
1.48
-56.58
-62.64
-53.89
-30.63
-24.34
-54.08
-3.5
17.81
20.29
41.56
50.32
53.4
29.17
26.75
-1.59
-9.53
-22.78
-20.94
10.01
-34.24
-35.26
2.34
14.04
6.32
-57.7
-92.16
-24.65
25.25
-19.83
-1.81
29.66
4.86
25.55
41.15
1.75
17.69
19.42
-13.2
-31.72
1.2
14.33
15.8
-3.75
-9.09
-41.06
-38.19
-0.72
6.17
-16.8
13.87
41.92
17.3
8.22
8.31
19.88
55.09
74.66
3.18
-56.53
-86.58
-83.39
-20.67
19.38
16.5
-1.66
11.13
9.29
-34.97
-19.2
37.66
48.23
11.97
-9.03
-7.26
-11.78
-50.94
-28.6
55.03
51.63
-42.75
-19.18
19.17
32.47
-7.79
-7.56
35.61
18.06
-30.37
-69.91
-37.7
24.96
49.78
47.1
4.37
-80.02
-48.94
19.69
37.39
37.91
15.61
-34.49
-27.88
13.04
19.11
27.26
20.35
-49.76
-24.38
46.67
35.44
-45.99
-63.04
6.6
31.22
12.83
-38.7
-17.51
24.22
25.48
47.79
33.04
-16.54
-49.8
-37.64
-32.88
-35.16
-24.28
7.72
63.34
28.43
-21.46
-18.5
3.46
-8.89
-16.51
2.68
57.82
73.11
38.14
5.27
1.39
-8.38
-5.23
-22.55
-53.91
-59.3
-28.02
-9.19
16
25.16
14.44
-7.1
6.38
28.83
0.74
4.68
25.2
24.98
12.79
4.14
27.31
49.89
-32.15
-97.82
-51.93
-31.97
-10.85
19.52
-9.32
0.52
45.28
56.76
40.96
-26.48
-59.92
1.66
-11.59
-22.51
15.12
34.67
-9.48
1.29
0.36
7.27
-6.23
-52.33
-58.47
-36.37
-11.27
34.3
17.31
-40.01
-29.49
33.29
55.39
59
54.58
57.29
5.99
-25.34
-16.55
11.06
12.78
-4.28
-21.59
-41.26
-81.89
-60.52
1.5
36.39
4.68
-3.55
6.64
11.38
-22.29
-21.26
-14.22
-42.44
-72.95
-69.35
-50.53
-16.51
43.76
59.3
13.48
-0.11
14.27
46.1
48.16
26.39
12.3
-23.58
-43.72
-60.97
-59.39
20.77
66.5
56.14
36.77
26.79
23.58
26.64
42.74
4.03
0.97
-19.35
-27.56
-3.46
-17.53
-73.37
-56.79
-26.56
20.01
51.62
42.01
36.56
20.38
4.61
1.68
29.15
35.18
32.77
-3
-50.29
-43.04
0.68
8.33
4.21
-27.39
-40.72
-36.18
-20.7
18.14
45.08
14.76
-27.94
-2.38
9.97
-7.85
-5.59
1.01
8.55
17.41
41.55
3.77
-99.55
-82.26
-49.68
-42.2
10.49
92.36
81.62
41.11
-27.46
-72.21
-43.02
-34.92
-83.39
-81.8
18.44
44.51
64.91
89.54
55.47
13.99
12.34
5.37
14.22
-0.69
-27.82
-7.71
46.55
40.18
-18.27
-57.83
-44.59
-42.24
8.69
34.93
41.04
38.44
40.46
42.92
44.35
48.69
-14.55
-73.22
-57.15
-40.16
-7.41
-24.52
-29.33
-22.55
-13.42
0.65
11.67
20.39
48.41
67.58
12.77
-39.99
-19.35
0.5
28.75
8.89
-45.93
-56.8
-44.47
-4.65
31.9
27.65
-19.78
-81.24
-71.01
-45.49
8.87
62.16
63.49
39.87
42.58
62.89
34.82
11.59
-21.81
-44.31
-77.22
-64.63
-4.69
11.71
-23.68
-41.84
-21.66
-11.15
5.72
45.3
53.28
51.98
15.21
-7
16.19
21.88
11.77
30.59
35.54
0.57
21.52
14.55
-0.4
-23.28
-24.21
-9.01
3.88
5.16
6.41
6.76
-38.88
-69.87
-9.82
33.98
-1.26
-25.3
-1.81
31.62
23.11
-6.86
16.23
15.22
-29.41
-37.94
-22.34
-45.59
-36.46
-16.91
-5.76
6.71
4.04
12.78
30.61
12.9
19.19
-0.21
-13.89
12.4
-9.36
-26.31
26.41
26.52
-13.78
-30.77
-10.59
-15.97
-16.82
0.21
-21.1
-51.31
-22.91
32.21
52.15
53.66
79.51
28.95
-29.3
-8.12
40.62
41.55
23.93
-11.73
-5.42
-33.3
12.2
13.87
0.73
-18.1
-30.74
-18.85
11.85
11.19
-28.05
1.13
-24.52
-18.74
-17.05
-10.61
11.15
21.01
15.32
-14.11
-2.25
10.42
7.52
14.98
27.1
34.95
-13.28
-30.89
-39.01
-32.49
-14.89
25.03
50.77
14.06
-0.21
24.48
62.17
64.41
16.44
-6.89
-28.83
5.72
-7.87
-4.75
-58.68
-50.93
-55.41
-63.8
-52.98
-1.08
50.06
-18.58
-78.98
-28.98
52.26
69.16
52.83
44.83
36.49
17.99
5.96
-29.14
5.72
6.49
-39.85
-39.16
-11.89
-28.46
-8.8
-0.28
-6.44
0.93
23.97
29.79
34.83
-8.1
-68.33
-78.96
-46.28
-17.19
10.29
21.87
50.41
54.39
26.39
28.5
40.45
33.43
17.48
5.02
-5.99
-29.04
-21.02
-71.77
-49.95
11.67
32.16
15.33
-2.07
-19.09
-41.94
-39.12
-35.89
5.42
18.68
1.53
-14.99
-2.89
-12.69
1.04
7.49
-14.4
-24.82
-35.87
-19.48
51.31
90.55
57.49
8.7
-2.82
0.9
-35.27
-36.7
-28.13
-16.98
21.98
41.78
31.35
7.23
-3.42
-7.25
-15.67
18.83
28.14
-15.07
-20.38
-16.15
11.71
21.44
18.75
19.23
34.59
16.18
2.02
7.82
6.69
-8.73
-5.65
-15.63
-26.23
-42.58
-21.06
6.49
15.39
32.83
-26.58
-104.52
-90.62
14.19
65.1
62.1
58.36
34.14
-23.72
-46.19
-5.64
27.66
14.07
12.4
43.76
-16.93
-51.05
-1.37
0.73
-32.23
-27.13
-7.05
6.65
-16.48
-34.15
3.82
42.6
63.19
40.91
4.6
-10.26
13.19
33.17
19.84
20.97
-43.68
-107.83
-86.31
-1.91
-8.68
-7.51
15.76
29.32
12.65
19.65
33.78
28.31
21.17
-34.75
-33.28
9.06
-48.79
-56.79
-0.72
-14.45
-53.73
1.76
27.32
10.28
34.99
56.48
45.69
21.07
2.36
5.2
3.28
13.84
33.34
31.69
21.76
16.79
-16.47
-13.16
-20.77
-12.02
-8.7
-39.72
-44.33
-41.57
-8.55
19.43
3.96
-17.59
-6.14
4.14
22.54
14.57
-54.35
-49.95
46.02
51.11
43.79
43.97
23.21
2.88
-17.32
2.24
-2.69
16.15
0.39
-36.44
-0.29
0.15
0.82
10.9
28.51
14.7
-27.96
-12.18
27.11
14.13
-10.44
-10.81
9.55
-0.61
6.5
-0.99
-8.97
3.3
-2.54
21.35
42.45
9.55
1.4
-6.9
-6.8
13
25.89
-3.3
-34.2
-44.65
-18.2
-2.9
-2.54
-12.74
-13.83
-33.86
-25.5
19.04
39.83
21.59
-36.26
-39.88
21.81
16.16
-37.33
-47.56
-15.44
12.88
51.92
36.29
4.14
5.68
10.29
-2.23
-10.5
24.7
25.13
4.91
-16.67
0.86
17.91
12.37
21.33
37.18
44.72
29.38
6.74
-0.52
2.97
-9.54
-25.84
-18.94
-51.98
-48.05
-0.63
-6.2
-20.65
-15.18
-25
-0.82
27.05
24.87
5.53
-2.7
-19.19
-43.83
-27.76
9.87
25.37
52.4
47.13
34.29
-3.55
9.75
9.8
-16.06
-35.97
-29.19
-22.78
-32.44
-26.01
25.75
20.48
-22.65
-16.83
-12.49
26.42
64.11
56.15
47.17
34.16
18.21
23.98
17.88
3.09
23.39
6.49
-51.56
-92.25
-17.69
10.72
-36.58
-45.66
-14.38
16.62
9.9
2.35
33.77
28.38
25.33
-4.36
-33.74
-25.74
-4.16
17.12
36.76
30.98
9.26
-20.35
-2.51
12.01
9.36
-25.21
-45.94
-12.52
16.73
34.54
62.08
59.9
-25.38
-79.32
-10.4
3.33
26.33
-25.19
-33.04
-18.72
-8.62
-10.34
-17.68
9.39
29.4
29.55
15.01
-6.99
-11.4
17.6
25.74
43.6
55.43
13.57
-24.77
-24.25
-17.34
-20.66
-7.41
-9.08
-19.41
-12
-12.36
-14.18
9.32
17.6
-27.23
-41.02
-35.37
-8.12
9.3
-4.25
20.23
22.3
19.26
9.06
-41.3
-30.94
14.74
23.87
10.74
4.23
5.88
4.96
-30.12
-49.13
-40.21
-15.92
17.21
32.69
45.22
32
24.7
-3.79
0.26
31.57
25.96
11.52
-8.69
-5.57
6.37
-21.86
-27.28
-32.21
-43.26
-22.49
-3.05
16.47
12.04
15.24
17.54
-7.92
-0.18
21.43
22.64
17.29
21.27
15.02
17.23
5.78
-13.64
-45.54
-38.78
-30.61
-22.54
3.48
17.84
0.69
-28.53
-31.54
-19.23
0.2
22.01
39.74
31.55
12.63
12.59
11.52
0.55
-1.81
-1.12
7.3
0.08
-49
-53.23
-14.61
6.26
-12.89
-5.03
8.13
19.68
11.27
9.22
0.13
-1.5
-0.95
-22.78
-12.87
-21.13
-28.57
-41.06
-35.73
16.29
48.29
36.2
21.96
2.28
-22.97
-18.91
-15.3
-52.54
-47.16
2.64
42.5
50.58
23.69
-14.79
-17.47
8.77
25.68
17.62
-43.05
-75.12
-52.42
-0.7
26.97
11.23
12.21
10.62
-1.23
-16.34
-0.42
-2.87
3.29
4.92
-33.89
-49.73
-7.36
41.15
48.94
21.75
24.9
34.21
9.44
-26.1
-28.75
-17.59
-42.42
-62.82
-1.26
45.89
29.98
-15.81
-15.83
19.9
55.1
55.47
25.01
-48.8
-62.7
-7.85
36.44
18.15
-4.95
-5.39
-27.18
-28.11
-15.65
-13.03
-33.39
-61.77
-7.72
3.64
-14.18
14.47
53.22
44.5
5.23
8.46
20.52
9
3.06
12.07
13.45
4.29
7.25
3.48
-22.78
-59.89
-84.17
-71.96
-16.65
20.7
24.9
22.74
-0.88
-6.51
23.49
32.62
32.85
26.5
23.5
12.66
-12.13
-33.19
-40.22
-46.91
-40.99
-52.01
-42.81
-18.11
56.29
62.91
29.97
26.69
28.2
5.87
1.56
-17.42
-22.45
-36.44
-19.8
40.62
38.08
-14.39
-29.19
-19.23
-21.13
-32.45
-13.51
17.69
34.81
-1.6
-37.71
-35.27
18.5
-3.78
-40.54
5.13
14.48
-17.95
-3.53
54.51
44.47
17.9
17.83
24
22.68
-15.16
-62.69
-64
-10.56
15.9
29.58
35.23
-2.72
-4.84
11.85
24.56
32.67
37.89
41.09
35.73
15.93
-1.56
-11.97
4.35
-6.05
-18.13
-37.98
-55.74
-28.9
8.63
-2.51
-14.77
7.1
9.76
7.12
2.25
-0.96
0.34
-1.7
-2.69
-6.24
-7.09
-5.26
-10.88
-10.96
-7.01
-1.9
2.75
5.91
11.19
8.76
10.96
13.29
10.92
5.13
0.96
-1.59
-2.91
-7.67
-11.68
-19.22
-22.11
-12.3
-2.9
-1.99
0.24
4.2
6.06
6.97
10.97
11.76
12.79
9.67
1.38
3.68
7.13
0.51
5.83
4.28
0.36
-0.09
-3.64
-10.55
-17.65
-12.13
-2.81
3.91
7.88
10.49
13.82
16.48
12.49
9.66
12.3
9.41
6.69
1.95
-1.5
-7.27
-10.61
-9.29
-11.07
-11.19
-6.62
-3.44
-2.07
-1.01
3.59
1.64
-2.84
1.02
5.02
7.38
8.31
3.78
2.86
3.42
3.23
0.6
-2.72
-5.13
-9.22
-9.66
-7.12
-7.1
-9.49
-6.83
-0.91
2.58
5.57
8.45
12.14
14.1
11.9
10.14
8.29
3.4
0.96
-1.11
-5.11
-7.98
-10.57
-13.85
-15.4
-24.21
-18.68
-6.45
0.32
5.55
6.01
8.03
11.64
12.55
10
9.81
8.97
10.43
9.05
7.78
1.84
-6.27
-8.32
-7.31
-13.82
-15.88
-13.04
-11.4
-15.51
-8.04
1.52
5.76
13.39
15.48
15.27
15.24
14.44
11.04
5.97
0.21
-1.83
-3.06
-5.3
-8.03
-9.42
-10.93
-8.16
-5.85
-2.4
-1.57
-5.07
0.57
7.33
14.26
14.56
7.64
3.87
1.99
0.98
1.02
-2.78
-7.81
-7.78
-8.76
-11.7
-11.96
-13.23
-10.25
-9.01
-2.37
4.12
7.09
10.81
13.18
10.64
4.58
4.52
6.02
3.31
3.49
8.86
8.54
-0.02
-10.58
-14.5
-13.01
-11.28
-11.14
-9.53
-7.11
-9.9
-9.36
3.6
12.55
16.01
15.65
15.96
11.81
11.8
10.14
8.07
2.97
-0.59
-0.3
-2.26
-7.75
-11.7
-12.51
-10.11
-7.56
-6.15
-2.38
2.92
4.88
5.37
8.8
14.28
13.47
11.2
11.73
10.71
4.95
-2.56
-8.63
-12.91
-12.83
-12.92
-13.23
-13.63
-7
-0.36
4.58
7.84
10.27
7.9
-0.54
3.1
0.21
4.36
4.17
-5.99
-8.55
-8.62
-3.54
-2.6
-11.19
-12.3
-10.59
-6.5
-9.96
-9.23
-6.88
-5.83
-4.82
-1.03
0.98
5.13
11.22
13.79
10.35
3.13
-2.44
-8.11
-5.2
-4.5
-6.34
-3.69
-6.84
-9.08
-10.46
-17.37
-14.79
-8.31
2.87
7.89
5.54
2.05
9.2
20.26
19.33
13.41
8.93
3.51
0.48
0.07
-1.93
-5.42
-8.03
-9.11
-14.49
-14.17
-11.97
-5.55
1.67
4.22
2.62
9.36
10.02
7.48
8.93
10.74
11.78
5.57
-7.84
-14.61
-14.42
-10.71
-8.31
-10.33
-5.37
-4.24
-8.5
-23.27
-18.25
4.73
15.77
17.7
9.77
6.74
11.95
16.1
16.87
13.24
6.81
10.53
-2.01
-20.74
-25.54
-24.05
-26.24
-17.64
-10.06
-12.16
-19.89
-8.01
-1.53
-1.44
18.73
22.75
14.58
16.66
11.42
-1.64
0.1
8.22
7.4
2.43
-9.01
-12.56
-10.06
-10.07
-8.82
0.08
10.87
3.65
-5.27
-4.07
2.87
1.13
5.54
28.56
28.87
18.17
15.62
8.88
-1.17
-11.67
-11.71
-9.75
-9.25
-8.66
-9.96
-7.93
-5.48
-1.86
-2.26
-2.05
-3.92
-11.76
-8.81
4.71
13.91
13.36
2.05
-1.28
-2.52
0.53
6.39
4.03
1.7
-1.73
1.66
3.88
-8.12
-10.64
-17.32
-12.16
-3.82
-16.09
-20.71
3.5
15.71
25.21
22.94
4.98
-44.58
-66.44
-52.82
-11.23
3.48
-1.12
-5.1
-11.6
-27.49
-33.51
-19.9
-28.6
-28.74
-29.35
-37.16
-46.5
-24.11
19.16
57.87
55.3
28.21
6.07
22.37
23.63
7.88
12.12
8.68
-1.36
-23.2
-52.44
-25.06
-4.42
-1.58
11.33
9.6
8.26
13.02
23.21
20.48
32.98
4.3
-32.97
-56.67
-77.55
-33.81
23.19
16.35
-4.98
-18.82
22.56
10.21
-17.87
-12.4
-9.13
-5.9
13.31
19.42
-25.6
-13.89
40.24
74.35
46.23
0.75
-16.44
-27.52
-39.14
-19.29
2.99
19.28
28.18
22.34
9.06
15.7
6.08
14.53
30.6
14.59
9.78
26.73
25.99
14.19
12.88
-2.25
-42.91
-33.38
-12.55
-13.7
-10.13
-21.51
-33.47
-45.71
-52.46
-16.75
17.99
20.24
20.8
29.94
26.74
21.74
2.26
-21.61
-63.89
-62.03
-10.99
16.36
19.89
2.48
5.09
-5.54
-11.76
20.72
-7.56
-29.25
-0.01
-2.26
-17.65
-58.92
-84.99
-39.72
-0.97
26.05
47.12
9.45
-7.1
5.66
11.75
-36.92
-27.68
12.88
63.99
53.13
8.92
-31.63
-36.13
-22.35
-8.31
16.21
24.05
35.66
55.42
14.75
-63.48
-60.63
-10.56
-20.65
-37.83
-18.92
30.05
77.17
102.33
107.15
90.84
40.45
-11.73
-36.2
-27.71
-17.94
10.01
-3.62
-62.25
-60.18
-2.32
6.48
9.81
29.12
6.76
-22.36
9.47
4.37
-47.47
-72.77
-70
-21.28
38.44
36.88
-18.66
-49.7
-42.2
-52.53
-47.65
-39.72
-6.96
45.15
57.68
71.05
69.15
26.56
-20.73
8.66
24
27.49
9.27
-7.94
-24.27
-4
38.97
61.2
22
-26.19
9.04
23.64
-58.68
-70.03
-57.34
-38.92
5.13
37.86
33.5
-6.85
-6.82
20.4
40.98
21.53
-6.68
0.08
31.13
50.05
24.8
13.23
-4.13
-9.54
-18.85
-19.19
-57.73
-77.18
-70.64
-23.25
-30.46
-24.84
-15.82
-19.22
-39.44
-24.51
39.02
35.47
4.26
0.21
-3.41
-14.84
-8.54
8.13
10.27
13.95
18.92
26.51
48.25
22.91
32.04
23.77
-59.76
-78.9
5.58
6.93
-10.28
-13.53
5.37
25.76
-14.65
-56.91
-34.97
-6.58
15.72
49.8
36.48
7.67
22.73
35.38
7.88
-25.46
-43.29
-41.12
-29.62
-58.77
-82.98
-94.34
-70.42
-7.98
-3.2
-3.73
-3.71
26.93
48.48
59.93
47.56
-31.62
-38.14
-10.09
16.98
10.15
-18.77
0.21
52.36
41.09
7.7
16.39
-22.12
-51.47
-37.37
14.13
39.73
49.79
73.79
92.85
42.77
-14.36
-1.73
-0.04
5.08
23.64
4.46
-20.84
11.97
25.29
30.21
9.37
-49.48
-58.81
-25.39
-64.58
-106.01
-68.15
5.02
59.63
61.19
9.79
-29.13
11.4
47.82
44.47
15.05
-4.16
7.64
22.15
12.94
-18.23
-61.24
-104.96
-89.03
-16.37
45.86
60.79
50.89
44.15
47.79
41.11
32.27
-11.28
-50.72
-45.77
-14.15
-10.1
-49.19
-59.03
-30.08
-21.82
-18.29
14.1
27.01
14.94
13.66
12.16
11.78
-28.83
-40.89
27.69
70.33
78.03
41.83
21.75
7.05
-2.95
-0.23
-1.91
-1.57
-53.26
-17.54
-51.19
-117.98
-72.14
-27.85
-35.56
-19.65
18.39
52.09
72.97
87.28
90.35
0.65
-54.63
-19.24
14.07
-15.96
-21.36
19.32
46.56
23.12
-17.47
-29.31
-26.35
-44.64
-25.02
-5.14
-26.76
19.18
41.18
19.65
-22.25
-4.28
52.69
40.1
10.89
-16.02
-76.15
-58.81
-15.68
-15.73
7.72
19.57
40.75
64.41
70.88
12.75
2.25
-28.35
-109.73
-133.1
-78.29
2.9
43.73
95.05
131.88
112.96
67.66
33.87
-1.41
-52.51
-119.85
-109.49
-20.84
30.46
23.98
21.09
35.86
34.75
17.54
-21.64
-23.17
8.08
24.67
-0.68
-41.77
-73.14
-33.17
-16.61
-36.07
5.08
65.8
87.36
72.15
3.87
-22.48
19.45
49.35
6.58
-38.75
-52.22
-61.71
-33.62
0.32
-19.55
-62.01
-47.14
-31.24
-62.22
-46.42
74.1
74.41
48.42
43.99
41.6
36.28
25
29.29
4.08
-23.42
-57.38
-123.72
-63.63
1.4
43.97
72.2
79.1
31.06
-13.15
-3.23
-27.59
-37.17
-27.04
-8.73
-24.9
-12.83
19.46
-1.72
-9.52
13.7
61.41
59.13
20.89
-58.16
-91.08
-75.5
22.12
96.59
59.9
-24.68
-16.06
24.05
38.89
4.71
16.35
8.32
-5.86
8.48
12.2
-8.7
-74.01
-27.45
25.14
72.44
21.62
-65.74
-45.23
3.3
17.72
17.95
-26.06
-56.72
-37.02
11.87
23.46
-13.05
19.67
44.38
26.18
10.05
-12.23
36.61
30.32
-57.71
-113.76
-62.74
1.35
45.47
66.06
105.61
130.48
56.74
-66.17
-54.8
-35.57
-13.25
-16.44
6.12
21.95
0.72
-42.37
-39.59
-33.38
-7.48
32.66
41.16
47.7
32.58
0.26
-12.27
-4.37
18.55
46.36
69.58
34.97
-3.67
-47.9
-57.56
-42.36
-76.02
-113.89
-101.38
-67.96
39.95
80.45
58.71
19.5
-2.11
-28.21
-39.18
-38.1
-4.31
25.51
51.86
5.42
-50.64
-55.86
-12.58
-21.29
-92.31
-99.17
-7.21
65.11
108.69
128.81
114.03
96.99
61.22
27.72
-30.37
-60.59
-34.54
20.29
25.31
13.67
11.69
11.55
-21.38
-27.23
-9.12
-14.61
-79.82
-103.07
-29.8
99.52
139.24
101.63
69.77
15.72
0.64
-7.28
9.96
4.88
-56.4
-53.74
-89.37
-124.95
-79.34
-82.74
-88.46
-29.49
29
64.47
95.23
70.83
-2.43
-17.96
28.92
30.33
14.46
22.36
47.82
43.91
17.93
-8.08
24.56
15.35
-36.55
-46.02
-61.78
-103.8
-172.94
-103.22
-5.41
57.31
119.28
72.1
18.58
-0.86
39.93
34.35
-33.04
-94.57
-97.93
-5.95
47.54
59.96
36.59
27.85
12.61
-33.39
-94.53
-59.17
33.99
21.33
11.64
-2.54
-7.09
52.45
94.21
82.61
49.17
6.62
22.49
28.49
-4.5
-59.44
-80.49
-53.67
-68.14
-34.76
33.8
38.27
25.04
13.92
-7.92
-36.37
1.24
16.85
25.09
5.41
-10.26
19.7
43.51
13.98
-3.22
-9.02
-56.36
-79.73
-36.37
-20.39
26.35
42.04
31.57
-31.61
-64.31
-45.75
-17.29
18.61
72.98
84.13
63.04
30.59
43.05
-15.94
-70.44
-94.95
-112.3
-85.79
-7.29
38.96
67.65
76.97
82.18
61.37
43.78
1.53
-32.22
-59.04
-44.1
11.58
45.12
33.26
-7.29
-27.24
-38.42
-58.8
-24.39
59.52
80.87
38.23
-13.51
-18.65
10.12
-27.06
-88.81
-78.76
-7.84
50.48
58.38
38.03
28.8
40.61
28.45
-46.8
-90.86
-80.41
-89.19
-91.39
-35.37
35.62
92.4
36.11
4.22
-42.53
-10.37
9.98
-7.11
22
42.14
63.72
85.27
49.14
24.29
-15.38
-6.2
27.04
33.67
16.99
19.88
-29.01
-97.95
-177.14
-108.17
18.45
60.53
54
53.84
33.74
2.84
54.61
80.96
21.08
-51.62
-33.28
-42.86
-14.33
6.32
-65.37
-100.1
-58.51
5.11
46.29
63.49
89.88
60.14
55.23
48.8
29.86
1.6
-11.96
-18.52
43.93
5.42
-68.95
-47.1
10.32
9.41
18.35
15.79
3.5
-21.43
-67.82
-48.26
-29.35
-24.5
-4.06
50.92
27.1
-4.4
-6.39
-11.75
10.65
39.93
38.25
-2.48
-10.8
-3.46
-8.06
30.08
-19.86
-42.03
-12.59
4.61
19.22
17.55
33.93
60.77
49.15
-15.28
-21.14
-109.45
-113.14
-20.63
64.02
88.67
89.4
64.62
62.7
52.05
14.26
-12.65
-37.5
-64.93
-71.45
-54.02
-22.72
14.9
62.57
61.81
-1.66
-21.82
9.51
38.85
-49.24
-111.63
-37.25
57.09
53.87
34.36
6.79
14.09
47.91
5.71
-49.32
-60.09
-24.91
-57.93
-80.64
-20.64
12.49
-24.17
-77.25
-53.16
12.4
66.5
94.28
112.08
116.15
94.68
42.11
-98.09
-168.3
-180.01
-100.61
10.5
83.96
113.1
129.05
115.18
75.26
44.85
32.68
16.75
-41.67
-58.03
-62.67
-17.05
3.47
25.76
30.59
-14.66
-38.79
-31.35
-18.97
28.08
21.54
-10.45
-44.91
-33.71
16.07
29.21
2.04
-0.35
-7.93
8.96
8.45
10.21
35.84
39.96
-2.53
-47.83
-71.21
-91.1
-83.45
-30.14
33.45
57.73
49.67
13.27
13.23
56.72
61.62
41.62
46.92
47.84
-2.23
-61.47
-108.54
-27.59
80.07
68.69
47.41
34.19
3.36
-33.74
-25.17
-33.77
-72.57
-63.9
14.09
64.76
54.19
20.02
-28.01
-93.4
-51.24
63.51
84.09
29.53
-16.11
-32.5
14.77
19.15
47.92
28.5
-64.75
-77.21
-44.03
7.97
47.86
47.18
69.61
63.06
21.74
17.58
21.73
7.76
-20.66
-6.06
19.48
0.13
-9.77
-46.61
-82.66
-98.65
-93.12
-63.34
22.3
87.97
63.13
38.9
-20.8
-66.57
-33.86
81.45
104.05
4.15
-33.79
20.58
78.01
74.31
3.9
-36.54
-19.06
2.8
-1.83
-17.21
-21
-23.32
-15.8
-6.28
-9.61
-4.89
30.69
62.23
76.59
3.77
-32.97
-30.72
-63.95
-46.39
-24.22
-41.42
-27.55
4.48
38.94
42.73
59.1
50.58
31.32
5.33
29.03
18.9
-87.58
-143.4
-98.53
0.77
89.44
122.36
109.8
65.63
16.7
-3.9
11.27
66.85
51.32
-77.76
-117.24
-59.86
27.88
33.53
-27.19
-65.91
-42.52
-50.1
-33.72
39.42
110.33
61.77
11.23
-28.34
-0.26
54.44
82.84
59.52
0.95
-4.42
12.75
17.11
-63.1
-177.28
-130.56
-23.23
38.14
59.79
88.69
74.89
60.06
41.94
17.72
3.54
-4.97
-14.66
-19.39
-23.22
-26.45
-13.96
-67.11
-22.67
22.43
12.1
8.97
12.87
7.35
0.01
4.89
19.88
34.64
-23.13
23.09
32.97
11.51
3.65
2.44
-5.95
-3.6
42.8
72.96
1.9
-45.96
-37
-57.6
-52.97
-25.27
-54.29
-71.36
-6.52
18.05
23.44
37.53
48.34
84.31
82.09
19.27
-29.03
-54.81
-9.85
45.28
14.7
5.52
29.34
17.62
37.41
64.17
38.43
-83.16
-63.33
-2.9
11.63
33.74
20.79
8.17
48.96
88.95
24.5
-78.01
-86.48
-59.5
-40.05
-106.45
-140.73
-26.86
77.5
125.28
116.85
92.32
45.06
43.24
43.46
42.5
58.19
56.4
-10.21
-55.68
-69.81
-136.51
-92.05
-5.21
34.39
54.04
58.23
13.22
10.8
-19.83
-14.05
-8.66
20.85
47.93
44.73
56.55
52.74
43.01
6.79
-22.97
2.31
23.85
41.69
10.85
-70.55
-139.15
-106.06
-0.31
75.64
46.52
-71.71
-62.37
-8.17
26.87
49.68
92.63
63.32
1.3
-82.9
-69.74
22.41
57.92
69.43
43.66
4.63
-28.47
-28.11
-41.88
-37.7
-16.3
-8.91
39.53
56.45
27.21
47.51
60.85
58.07
67.03
-7.91
-56.36
-91.82
-71.33
-29.43
-4.21
23.54
29.5
-3.41
-10.99
-31.9
-19.28
24.5
27.69
4.53
-43.92
-57.6
-23.98
5.65
10.17
19.77
39.04
30.82
-16.7
-34.79
-8.12
-10.55
24.57
64.59
29.11
-32.32
-15.31
12.16
28.63
15.28
-2.47
-45.37
-30.16
37.44
60.12
14.98
-31.39
-66.17
2.64
30.96
16.97
60.93
20.18
-84.99
-52.28
23.49
27.65
-3.21
39.75
47.04
32.66
36.51
51.37
-0.5
-19.39
-24.96
-47.7
-21.41
26.01
41.97
50.28
47.23
4.94
-52.62
-75.17
-9.08
12.93
-4.57
-23.59
16.08
18.68
-40.26
-41.97
18.27
42.26
28.49
36.93
49.55
18.92
37.83
25.99
-53.16
-56.2
-30.07
-9.41
-6.79
-21.11
12.05
-3.89
-5.34
26.76
24.95
-11.15
4.86
71.51
95.27
39.53
-52.35
-56.09
33.44
56.44
40.54
16.96
-111.06
-198.81
-111.22
15.54
84.31
91.93
85.37
66.86
33.61
4.46
-34.31
1.28
22.43
16.82
5.11
3.85
-30.53
-5.74
44.66
29.27
-98.57
-80.42
-6.42
16.09
22
44.53
67.53
33.2
-27.62
-12.64
19.82
19.64
-2.31
-47.02
-61.32
-35.59
7.96
57.68
80
48.58
-13.91
-33.47
-56.19
-29.35
42.2
-11.38
-54.32
7.32
38.79
17
38.17
69.4
82.99
68.56
35.59
3.58
-8.53
-52.99
-151.89
-104.81
7.46
51.74
35.88
39.45
16.99
-20.07
-20.87
-22.72
-19.6
-27.67
-22.77
70.92
83.74
58.64
48.36
30.65
48.14
49.77
9.45
-86.34
-113.17
-54.29
12.53
47
102.73
49.57
-70.33
-112.36
-39.03
45.21
81.75
59.91
22.11
17.54
18.68
34.56
-9.3
-62.52
-65.82
-3.72
19.93
23.55
-9.75
-36.14
-6.1
29.96
56.92
74.01
41.37
-39.29
-39.55
-53.21
-17.2
26.52
45.76
61.48
47.95
0.14
-56.26
-54.53
-59.58
-71.97
-41.99
9
51.45
59.91
5.9
-55.14
-37
24.05
54.24
43.56
13.31
-49.9
-30.19
-54.35
-55.82
40.47
71.84
64.55
58.53
52.22
42.58
51.95
31.48
-13.91
-37.47
-45.54
-42.88
-49.4
-18.77
37.45
42.8
-2.41
-36.95
-35.6
-0.31
16.62
48.26
60.23
15.52
-96.01
-122.42
-95.44
-65.56
-39.24
-43.33
28.55
88.49
106.26
58.58
-10.04
-26.44
-27.9
-52.09
-58.75
9.44
96.7
108.85
96.5
75.52
43.72
12.14
7.19
13.72
30.69
-14.13
-136.68
-144.13
-55.83
21.85
83.9
-8.99
-42.44
-35.07
-6.17
12.13
20.69
68.77
54.15
-26.67
-33.49
5.68
58.83
82.29
4.37
-67.72
-95.97
-83.55
-31.88
44.65
57.74
71.43
78.46
24.18
-32.53
-30.05
-38.86
-52.16
-45.86
-54.82
-54.29
-6.27
14.82
20.92
64.12
35.14
9.78
-17.38
-20.37
-20.94
-26.74
24.03
24.71
-15.67
-34.57
-5.07
50.19
72.56
61.3
61.56
88.74
90.58
49.19
-59.72
-184.87
-132.48
-59.66
-66.84
-23.16
73.14
122.99
105.59
95.13
57.66
42.64
27.28
1.61
-10.08
-60.56
-102
-79.37
-7.86
-20.4
-70.34
-80.07
-193.9
-187.58
14.61
161.9
182.22
159.72
160.89
163.65
101.15
20.63
-6.28
-40.89
-46.24
-38.86
-53.32
-51.77
20.02
65.31
61.51
33.4
-10.92
-12.46
31.23
-48.88
-78.98
-42.98
-28.6
-67.52
-82.86
-7.42
45.23
50.28
20.91
32.97
63.65
71.29
52.71
36.12
11.76
-13.21
-21.85
-68.17
-78.15
-31.24
1.96
-11.73
-6.19
-33.46
-33.63
-41.34
-19.33
23.84
50.47
64.94
35.94
34.28
10.13
-44.44
-89.8
-31.73
-9.49
-37.2
5.7
28.87
5.42
-61.28
-50.45
-54.19
-53.52
30.73
92.92
98.26
118.14
101.39
66.75
47.36
-7.67
-13.47
-4.63
-17.75
-48.32
-86.3
-57.98
21.09
55.52
43.57
-12.05
-38.3
-44.6
-1.89
-4
-42.01
-48.83
10.24
22.91
50.85
67.93
34.37
-9.77
-13.52
15.09
23.66
14.27
36.59
38.08
20.12
-30.04
-73.52
-59.87
17.14
51.99
66.52
52.11
-14.17
-43.97
-58.53
-37.97
56.1
116.2
21.15
-119.84
-179.43
-90.31
23.36
89.58
96.21
52.6
21.62
41.07
27.42
-12.41
-70.15
-70.33
5.38
0.83
-5.34
23.41
14.86
-33.5
-4.25
62.35
64.06
-11.2
-96.05
-52.82
20.79
38.41
71.11
106.81
102
84.16
52.73
15.74
-33.83
-64.76
-33.51
7.85
-10.89
-73.41
-124.63
-113.73
-29.46
50.54
84.5
55.48
-7.56
1.29
-7.2
-65.92
-32.02
23.39
45.63
10.26
-5.08
39.49
68.95
54.17
48.93
51.65
30.07
31.91
33.71
-19.63
-45.5
-60.49
-109.78
-23.02
71.31
32.74
-28.94
-14.82
-6.14
-5.1
-8.64
-28.41
-51.54
-57.9
-7.25
20.19
23.79
19.29
5.31
24.5
5.65
-31.5
-34.04
-41.8
-6.42
57.15
2.33
-24.62
-16.5
-26.01
-17.9
19.23
73.5
67.98
29.6
21.19
-1.21
-24.68
-37.37
-14.82
31.66
48.04
42.74
13.07
-0.53
-9.28
9.67
46.64
-3.17
-27.91
-48.6
5.58
55.49
42.04
21.93
-32.37
-37.38
3.23
-0.37
-27.47
0.31
22.27
-15.48
-30.79
-94.55
-86.09
-36.65
-4.29
-39.62
-10.62
37.84
92.97
110.36
78.32
28.81
-24.6
-59.46
-50.95
30.4
27.37
-23.13
-3.18
8.46
-6.65
-4.35
28.64
32.23
19.1
4.31
-35.17
-74.06
-58.68
3.27
67.98
82.87
54.64
19.86
10.06
27.51
54.35
44.06
22.66
19.25
27.01
-40.59
-88.92
-79.31
-50.69
-27.46
-7.57
9.24
-9
-48.9
-18.22
18.29
-20.2
-5.83
-10.41
26.71
111.48
131.03
75.02
16.58
15.2
42.26
69.41
62.82
-3.75
-64.8
-69.78
-40.05
-41.39
-18.37
16.3
49.12
-7.99
-148.63
-149.66
-63.72
-6.11
29.09
41.17
26.93
47.22
24.24
14.63
3.85
-2.5
3.29
-53.16
-59.61
-14.88
-50.8
-38.06
55.69
96.34
100.55
110.54
77.88
31.33
29.25
40.43
32.29
-1.55
-33.2
-32.68
-55.86
-97.35
-127.27
-94.33
9.25
88.67
78.06
26.22
-1.76
9.91
17.77
20.08
28.87
45.74
33.49
-0.9
-27.01
-54.31
-67.54
-56.77
-50.32
-18.69
-18.78
10.54
24.12
21.62
57.01
18.63
-4.82
-4.58
17.75
49.19
57.65
12.94
-62.34
-76.07
-63.64
-13.41
7.95
-27.61
-63.8
-124.55
-76.35
40.76
119.55
106.48
97.21
83.45
57.62
48.44
39.76
37.08
47.27
44.67
26.26
-18.04
-81.37
-44.73
-71.66
-130.89
-81.74
18.83
33.77
43.52
37.18
12
1.81
-11.42
-52.61
-58.92
-16.88
20.51
71.35
80.94
75.05
61
45
34.28
6.22
-25.36
-39.29
-83.81
-83.23
-57.22
-1.42
-4.21
-1.57
43.54
75.88
55.92
-10.99
-51.29
-44.27
-8.06
5.87
8.43
18.55
-2.46
-36.29
-36.95
20.17
82.56
70.39
67.98
22.75
-24.89
4.6
25.12
34.25
17.01
14.4
46.07
43.16
-8.13
-62.24
-69.83
-39.9
31.65
92.73
106.72
60.03
-26.24
-128.46
-101.87
13.29
27.19
-9.4
-27.34
-21.89
-11.6
-0.7
25.5
47.49
57.29
44.92
27.36
20.94
41.07
31.13
13.66
-7.95
-68.47
-115.54
-115.59
-106.51
-51.67
48.63
112.83
58.87
-8.99
22.08
52.14
34.38
26.74
-14.51
-29.46
-14
-48.38
-62.09
-36.59
-23.08
-47.81
-48.75
-6.22
64.11
63.73
45.81
35.22
-4.79
3.26
30.06
16.91
-18.21
-39.02
-9.46
24.34
27.64
36.82
85.56
94.33
31.07
-33.31
-31.38
-53.43
-45.9
-25.24
-27.31
-19.09
-12.73
8.11
28.07
24.13
-25.69
-64.39
-6.13
40.5
56.47
74.38
72
41.9
-7.31
-17.1
-1.47
5.77
-37.19
-79.22
-93.29
-101.55
-73.61
-88.84
-39.02
37.13
43.61
70.63
87.53
110.99
109.05
69.31
23.73
-39.19
-74.53
-64.87
-45.09
-51.85
-42.56
-19.82
22.36
53.13
23.11
-3.32
-17.24
-48.96
-39.47
19.5
68.4
102.35
89.97
60.84
25
38.62
36.17
5.41
8.51
-25.51
-71.02
-91.57
-81.97
-65.52
-4.27
11.8
14.11
29.83
46.85
61.4
78.54
41.73
4.79
14.91
-28.95
-83.17
-106.17
-92.05
-1.74
52.39
56.57
-14.15
-38.59
-17.43
-7.8
-17.09
-11.22
-16.38
-16.7
23.2
73.98
105.28
64.68
19.12
9.68
18.22
14.92
-50.26
-46.28
5.37
42.02
91.5
83.99
7.93
-31.43
-40.42
-58.77
-63.63
-41.42
-6.89
26.46
-9.73
13.41
41.42
37.57
61.24
-10.85
-58.99
-11.46
45.13
51.54
70.98
67.21
-4.58
-66.33
-12.38
-8.38
-36.15
-14.17
4.83
-21.87
-31.61
-13.16
-10.5
-48.29
-35.76
-7.61
-10.71
14.5
46.08
88.7
76.11
71.93
30.33
-41.48
-70.78
-55.04
-34.58
-21.06
-6.46
6.03
45.89
56.64
47.86
31.63
7.84
16.43
-24.23
-87.07
-144.5
-106.93
4.13
83.64
98.67
103.22
58.74
22.46
25.67
8.17
-34.08
-40.45
-28.02
31.84
67.98
55.71
28.35
20.56
33.07
-33.96
-30.21
-28.43
-39.44
-63.56
-62
1.32
49.88
40.58
36.91
37.49
-7.96
20.23
28.93
-23.69
-27.25
10.92
29.86
48.98
20.55
-33.51
-80.03
-77.79
-62.33
-16.65
18.4
51.04
92.2
84.75
30.95
-33.85
-87.65
-119.43
-103.5
-73.04
-23.23
33.5
48.76
34.07
29.11
53.18
37.44
34.86
45.02
44.12
49.64
0.26
-104.7
-146.99
-67.69
39.69
108.46
107.85
52.42
57.44
65.02
-5.75
-47.25
-57.61
-24.17
52.79
59.45
24.07
-1.6
-25.01
-41.3
-31.39
2.32
-19.87
-68.54
-27.2
14.7
35.33
-13.07
-16.89
7.78
28.64
63
69.57
53.15
48.9
59.28
13.59
-62.3
-72.73
-74.64
-96.64
-94.25
-13.97
39.34
29.96
9.71
30.09
47.78
35.76
18.35
-8.67
-31.31
-24.73
14.49
23.02
-33.08
-54.93
-31.79
22.73
44.32
37.62
37.04
21.52
6.76
3.77
-21.76
-35.72
-45.27
-46.4
-62.47
-78.46
-30.15
59.34
110.57
99.21
75.97
38.3
17.26
11.67
-14.29
-15.47
-36.89
-72.82
-69.8
6.29
33.89
13.07
11.58
38.33
50.8
64.89
43.24
10.27
-21.01
-36.03
-85.83
-105.85
-99.38
-66.43
36.94
105.15
58.84
31.11
52.15
57.97
55.58
31.56
7.96
-4.96
-0.28
-31.49
-62.89
-12.12
15.41
27.45
45.88
53.09
36.47
39.63
27.64
-23.23
-42.96
-25.55
-38.26
-99.43
-125.7
-88.72
-29.82
39.56
62.96
46.55
9.82
-23.35
0.83
-11.66
11.52
29.68
3.95
10.34
75.3
73.51
4.17
-36.93
-40.3
-57.24
-51.61
10.02
41.39
35.79
23.84
21.02
39.26
55
64.23
50.76
29.14
15.11
7.35
2.33
-33.4
-48.44
-52.74
-54.51
-49.89
-63.86
-9.03
41.82
49.12
26.73
8.21
-17.06
2.87
28.93
10.23
-13.36
-23.66
-42.48
-45.24
-20.95
30.83
57.7
55.81
48.57
19.9
9.47
22.53
33.42
-5.67
-43.96
-47.56
-24.59
-71
-71.69
10.48
87.46
87.63
53.51
29.67
-4.64
-26.87
-30
-19.39
15.25
32.9
5.75
-28.94
-32.66
-34.76
-40.76
-52.07
-21.95
54.44
89.42
81.9
54.85
9.39
2.66
4.62
31.94
-4.02
-38.58
9.3
46.86
20.4
14.43
42.25
36.16
29.88
11.87
-31.79
-47.3
-19.34
-29.62
-21.38
-20.86
-35.35
-26.59
-2.22
6.57
14.53
53.95
19.02
-24.49
6.2
7.47
-43.99
-125.08
-103.07
12.27
75.89
86.3
52.42
28.51
2.69
-36.72
-77.92
-71.31
1.86
88.98
74.33
25.36
2.8
6.62
17.08
18.3
-7.44
-18.38
-92.24
-96.28
1.31
71.8
102.75
100.44
79.36
35.1
-27.22
-45.44
-37.72
-19.81
32.38
55.36
28.24
6.56
2.28
3.15
14.99
13.9
3.42
2.12
-49.29
-71.45
-44.47
-50.02
-11.29
12.63
-9.65
-37.48
-53.13
-10.65
10.77
25.7
49.83
56.85
58.61
29.36
10.65
7.56
8.41
-3.5
-23.27
-13.2
15.6
15.9
-27.66
-45.5
-53.95
-41.89
-8.25
63.25
66.84
50.43
38.67
5.02
-9.88
-12.18
19.18
32.97
53.01
44.4
40.09
13.43
-18.28
8.89
57.66
62.2
-4.14
-86.56
-88.7
-28.8
33.97
12.26
-28.54
-28.57
-27.2
-27.56
-47.66
-39.95
34.21
67.52
14.24
-28.41
23.59
13.04
-60.46
-78.68
-41.74
29.98
75.96
75.5
83.12
59.2
7.43
-17.45
-4.62
-7.86
-20.38
-13.14
-29.07
-64.2
-115.75
-120.13
-110.82
-2.78
66.81
90.34
87.56
75.53
87.16
105.3
75.44
-17.08
-77.27
-90.49
-29.57
-21.6
-4.67
59.84
52.11
14.56
16.27
39.17
52.65
38.48
11.22
-40.08
-26.73
-20.35
-24.13
-26.74
-29.62
3.4
45.07
48.51
8.67
-11.52
3.63
9.58
36.33
40.81
41.84
16.54
-43.69
-85.78
-92.93
-80.25
-56.04
-62.03
-29.07
-1.01
37.51
80.17
95.22
77.46
46.86
-3.36
-8.95
34.34
44.97
29.73
38.29
26.43
1.46
-24.45
-58.04
-76
-76.93
-4.18
59.33
54.11
-43.55
-57.05
-12.4
-7.22
-14.33
12.01
44.15
55.98
51.93
64.82
75.16
57.99
11.35
0.57
13.08
-12.2
-49.62
-45.39
-46.09
-25.14
5.32
1.61
-26.52
-22.22
-23.62
7.74
41.42
33.6
16.39
-8.64
-4.1
-3.5
-4.6
5.33
-22.28
-45.89
-21.24
26.06
1.02
-4.09
8.95
-2.98
-35.64
-72.74
-71.05
10.32
89.57
101.67
89.55
66.03
28.79
10.96
-48.82
-103.33
-92.6
-52.6
11.8
81.21
90.6
60.58
49.03
37.17
12.61
27.13
32.42
26.61
-6.72
-41.91
-56.94
-71.43
-43.16
-42.81
-45.31
-41.05
-13.02
6.74
9.43
-6.94
-1.54
21.4
9.18
19.09
39.81
54.57
48.41
-19.02
-47.19
-45.8
-28.87
17.92
67.63
46.92
13.96
-15.78
-49.2
-69.03
-60.16
-28.12
34
53.91
37.39
-0.48
16.3
-8.5
-37.51
10.41
68.64
85.57
71.76
56.61
31.13
-13.26
-38.8
-56.37
-95.63
-116.58
-55.27
26.51
53.88
78.58
62.94
62.29
75.06
56.84
31.7
-21.02
-60.33
-29.27
16.79
32.43
4.86
-52.75
-83.64
-69.79
-34.3
16.63
28.73
38.74
48.18
49.42
34.52
48.22
35.54
0.35
-16.45
11.16
23.51
1.03
-34.66
-27.92
-36.91
-53.04
-39.12
6.3
63.64
60.21
26.78
43.44
57.12
51.13
29.28
-23.63
-13.69
8.28
10.24
4.75
-3.79
-7.07
16.36
31.42
21.91
12.77
-2.54
3.38
-18.88
-57.34
-108.55
-159.9
-122.92
-37.38
3.62
18.9
19.52
24.72
50.1
60.81
45.25
26.98
-6.5
-10.52
-11.53
-15.52
5
34.53
63.86
77.12
28.04
-11.39
-21.01
-6.5
-21.3
-18.28
-38.58
-42.59
-35.93
-32.54
-7.1
-5
-25.69
-27.46
-43.9
-56.17
-26.72
31.56
60.77
52.3
82.73
84.45
15.47
-11.78
6.41
45.83
69.1
21.55
-22.27
-2.01
26.41
-5.52
-27.25
-18.82
2.57
20.69
-1.66
-40.47
-40.94
-47.66
-11.56
23.03
25.81
1.89
13.44
21.03
13.14
-37.32
-24.27
19.38
18.91
14.43
-50.12
-90.92
-20.93
47.99
60.83
70.15
88.36
99.59
58.99
-9.06
-37.25
-61.96
-95.28
-63.28
-20.49
8.78
24.36
4.97
-4.45
6.07
-23.91
-7.65
-21.6
27.57
59.09
45.41
31.86
34.51
36.36
22.59
9.5
5.11
9.95
-19.92
-48.69
-23.92
-31.49
-13.7
-8.03
-1.91
6.82
29.76
58.54
83.1
68.29
23.27
0.45
-16.97
18
18.37
-38.8
-71.76
-66.77
-30.47
14.92
34.54
28.79
1.95
-11.55
-57.61
-149.88
-107.83
-16.95
47.22
98.49
158.09
132.68
68.69
33.88
-29.56
-60.84
-98.18
-66.08
-15.77
-9.44
5.45
33.27
32.66
24.88
15.44
16.46
-6.13
-18.23
15.17
77.05
58.9
-6.92
-48.87
-14.9
37.35
38.51
31.72
29.07
18.3
-13.64
-45.5
-55.46
-80.48
-78.15
-34.94
-44.21
-52.84
-6.93
42.9
33.51
34.46
66.35
60.92
56.89
72.37
38.79
-26.09
-45.31
-0.24
13.96
-37.26
-57.16
-33.96
-25.66
35.46
55.63
37.89
38.87
33.79
49.59
15.61
-1.26
-24.49
-56.1
-32.07
-5.31
-15.23
-31.16
-44.11
-74.24
-77.19
-49.27
-12.83
20.38
89.54
122.07
78.72
37.28
29.62
46.55
33.47
11.77
32.37
36.36
25.72
-11.22
-31.51
-84.58
-163.01
-146.37
-72.58
38.17
122.58
143.03
118.46
73.88
33.67
-13.3
-60.66
-61.52
-85.95
-67.83
-23.74
10.41
23.5
61.89
83.03
74.29
30.68
-14.93
10.15
20.71
-38.45
-42.13
-2.19
-26.04
-45.84
-34.71
20.78
56.94
64.48
55.29
30.43
6.86
-27.83
-3.31
21.42
52.16
71.9
45.92
-14.19
-78.54
-93.06
-46.23
-49.81
-35.21
23.33
-0.8
-16.65
-6.88
22.15
72.61
67.5
22
8.69
5.98
27.7
60.98
14.62
-8.23
4.17
-14.01
-33.27
-48.19
-46.6
-27.3
-15.62
-25.78
16.15
9.43
-54.38
-88.07
-48.12
44.09
87.43
65.78
39.71
15.45
23.74
19.94
-13.14
24.04
58.32
66.47
49.55
-52.9
-104.13
-48.47
-1.49
17.8
49.97
36.01
-12.26
-4.59
2.59
22.23
51.59
58.92
7.68
-32.02
-52.42
-66.91
-34.25
-8.08
5.28
15.21
13.08
45.97
47.84
25.23
46.34
34.81
-10.81
-12.08
-10.39
-34.04
-48.11
-69.5
-37.01
-9.7
-18.1
-54.36
-29.37
2.8
27.92
63.11
101.21
109.68
87.42
39.25
25.78
-7.64
-79.38
-113.83
-114.64
-52.33
19.3
76.15
39.57
15.95
17
8.83
13.87
9.58
33.27
45.74
14.77
7.25
-1.28
-28.06
-23.52
40.6
49.11
4.99
-20.64
-42.64
-57.74
-29.84
7.8
41.84
60.33
10.01
-23.91
-35.8
-27.19
-36.19
-64.26
-48.59
-10.36
46.84
100.4
97.66
56.62
44.06
43.09
43.65
33.09
3.27
-33.36
-106.14
-109.31
-69.72
-14.42
-12.69
-22.89
-47.25
15.38
85.54
127.9
123.24
90.96
59.2
36.81
1.91
-13.53
-33.01
-20.82
-8.29
18.9
12.49
-25.51
-68.95
-79.93
-65.83
-27.92
19.83
70.43
46.35
30.4
17.13
-3.09
-3.11
13.59
21.33
20.96
8.92
5.48
-35.14
-55.57
-2.55
40.12
44.75
20.68
-11.95
-30.07
-53.69
-86.26
-124.12
-92.72
-30.04
28.06
68.45
87.05
106.42
104.58
71.83
48
15.61
35.7
26.9
-34.4
-32.04
-30.85
-21.67
19.32
29.32
31.21
36.45
20.97
-31.06
-61.87
-44.73
-47.84
-90.09
-96.57
-24.24
5.25
39.03
93.44
97.03
68.97
83.92
77.83
40.53
14.48
-25.06
-77.91
-107.71
-106.22
-57.56
-34.34
1.94
92.5
124.46
101.84
88.79
56.56
42.06
15.33
-33.63
-56.62
-42.8
31.03
57
15.44
-22.69
-53.19
-54.4
-88.08
-108.35
-66.07
9.83
48.27
-15.19
-74.48
-34.26
32.23
70.64
73.74
82.27
64.65
-32.04
-83.63
-39.53
35.16
43.42
26.18
-6.5
-60.6
-61.27
23.26
63.09
85.84
67.7
30.68
28.44
37.05
51.8
45.33
-13.18
-78.35
-68.99
-70.02
-82.55
-53.29
39.41
111.5
98.48
77.36
70.63
47.45
14.93
-27.08
-46.43
-17.58
-24.34
-67.68
-88.61
-52.85
7.42
54.11
51.24
59.65
46.7
12.53
-13.5
-7.44
24.38
42.41
26.48
-23.1
-81.58
-131.85
-142.36
-112.99
23.71
123.65
167.48
113.6
35.8
41.58
21.33
1.26
5.62
19.33
8.31
-7.6
-36.63
-56.96
-57.07
-42.13
-42.75
-26.99
23.53
56.68
81.96
62.4
15.24
47.82
77.5
71.15
62.25
45.16
4.74
-55.77
-117.39
-97.76
-50.08
-28.12
-0.67
20.57
12.61
20.78
37.94
39.98
0.42
-60.52
-95.87
-50.17
-49
-32.73
-8.69
26.81
91.11
118.2
94.26
78.63
32.04
-37.24
-51.69
-27.49
-4.52
6.07
-9.15
31.7
41.74
36.23
41.4
46.5
19.4
-6.26
-45.23
-49.7
-32.48
-58.21
-68.78
-41
-10.98
45.12
70.29
79.2
97.3
85.12
43.64
-8.47
-37.65
-81.44
-100.38
-37.64
-23.59
-37.58
-24.36
-38.75
-58.97
12.74
97.2
104.58
89.22
68.54
42.39
15.26
-9.12
1.53
19.85
19.49
-34.7
-89.31
-89.96
-37.44
10.9
38.37
33.54
16.28
0.73
14.94
37.98
35.81
-2.75
-28.52
-46.51
-43.75
-50.9
-26.34
64.59
78.66
48.16
69.06
91.43
52.31
11.4
-24.99
-34.48
-29.82
-34.16
-25.19
-35.77
-42.17
-0.18
28.33
31.32
5.15
-22.97
-33.28
32.3
109.36
79.29
45.01
31.93
16.92
-37.85
-77.46
-10.9
50.62
46.63
2.25
-71.52
-97.82
-96.08
-90.22
-103.38
-111.36
-20.08
129.91
167.93
136.17
87.92
50.51
59.74
60.44
55.72
49.81
35.38
4.64
-55.87
-56.31
-67.83
-103.32
-98.26
-37.24
31.51
57.3
39.15
60.44
49.01
1.88
-55.82
-58.14
-16.77
26.68
58.31
73.85
54.36
37.13
16.86
-40.91
-40.45
-3.75
2.07
15.85
12.24
18.85
14.71
3.32
-28.58
-48.46
-101.63
-128.61
-98.93
-38.06
16.58
38.24
43.58
34.87
44.16
92.09
122.93
80.51
23.68
19.48
2.89
-43.51
-90.02
-97.16
-56.57
14.73
74.75
96
81.53
54.73
26.62
-14.15
-30.15
-14.56
-8.07
-9.06
5.23
-24.24
-68.63
-82.73
-45.06
25.84
47.49
39.26
-12.43
3.69
34.48
43.65
30.38
12.87
-13.45
4.48
-23.1
-30.12
42.87
66.07
39.62
-22.31
-15.49
-10.72
36.13
70.46
54.77
-6.54
-48.24
-124.78
-121.79
-39.93
15.39
65.32
113.4
128.24
97.61
41.89
1.01
-50.39
-58.72
-21.01
23.61
-2.56
-30.82
17.05
47.4
44.67
35.88
13.28
-16.76
-56.64
-56.6
-21.53
-66.19
-178.2
-160.25
-110.51
-62.83
52.59
140.11
170.37
157.85
117.02
82.32
60.25
48.44
26.77
13.03
16.11
8.12
-14.21
-17.37
-38.47
-84.31
-107.88
-117.09
-54.73
-11.18
-36.95
-61.99
-45.86
-11.34
38.74
108.01
153.08
127.57
42.46
-2.71
-2.86
-4.72
-29.48
-30.06
-31.29
-33.79
-28.2
-38.38
-1.44
14.84
-2.86
-49.58
-76.31
-47.15
21.4
97.25
111.21
89.18
79.2
34.72
7.45
-13.37
-6.3
-5.39
-23.68
-60.32
-63.83
-67.4
-43.53
-1.92
64.97
129.94
107.68
51.07
-4.19
-10.46
-4.89
-9.53
-38.96
-67.05
-98.61
-47.54
-10.22
0.24
22.4
26.9
-2.27
-1.52
25.53
46.97
47.15
50.01
37.86
7.13
-12.89
-13.69
-0.65
11.37
-37.1
-43.04
-15.03
-16.78
-14.86
-30.9
-12.87
-15.7
-6.79
-4.12
-28.44
4.58
59.79
62.61
61.41
77.59
43.75
40.96
34.24
29
25.87
-7.79
-86.46
-96.84
-76.28
-59.19
21.19
90.42
73.74
51.72
50.5
72.51
28.56
-21.07
-37.15
-65.53
-63.8
-26.48
-3.12
29.57
63
57.51
37.41
3.16
-29.59
-30.87
-16.18
0.96
26.41
30.96
29.33
19.27
36.01
59.93
10.13
-69.87
-83.32
-58.02
-30.04
-42.45
-58.96
-19.79
-7.85
-0.78
30.31
52.74
54.36
28.24
-0.38
12.15
43.42
47.55
34.61
28.24
26.89
39.65
-5.37
-27.4
-13.3
-30.45
-55.13
-24.98
-16.49
-69.9
-81.48
-48.09
-39.38
-46.78
-43.39
3.45
52.52
91.48
110.27
75.84
42.1
37.8
52.97
80.23
90.47
57.32
14.03
-24.71
-66.56
-108.17
-119.88
-96.47
-57.53
3.88
-10.62
23.83
71.38
61.33
48.54
18.76
14.57
31.72
53.02
68.96
45.4
-58.74
-83.94
-39.15
-1.54
33.92
32.85
36.45
44.65
22.19
-17.52
-9.69
2.3
-5.57
13.72
-25.1
-41.54
-36.26
-25.82
-18.92
-19.04
6.34
37.55
39.07
44.71
31.53
15.45
8.84
28.48
25.86
4.93
-26.26
-24.22
-43.29
-71.37
-69.67
-1.77
54.62
47.35
43.79
32.03
0.8
14
30.21
13.61
-21.52
-61.41
-27.07
60.29
101.47
69.17
6.82
3.52
2.91
-20.32
-26.15
-51.52
-73.19
-47.41
15.58
67.73
31.31
-18.57
-19.86
4.83
2.83
4
24.88
15.18
6.31
51.77
47.38
-20.36
-82.08
-99.52
-46.38
16.36
11.81
9.14
7.22
25.12
65.4
51.12
20.63
-14.11
-18.64
10.42
3.02
-5.92
-12.61
-0.29
-0.86
-23.91
-33.06
-1.25
53.03
83.83
54.3
25.47
31.38
37.04
4.97
9.72
25.07
-1.55
-23.59
-19.14
-41.87
-39.52
-34.95
-99.52
-92.28
-28.82
14.75
10.76
37.42
75.89
79.73
42.72
21.05
2.19
-10.16
16.38
37.06
48.01
54.46
61.41
34.67
-17.48
-69.53
-97.46
-91.64
-96.06
-132.79
-164.34
-130.64
-101.78
-24.97
73.72
121.76
150.83
134.44
84.34
78.09
51.91
6.28
-2.65
12.16
35.45
47.34
34.7
18.39
7.73
1.58
-10.67
-1.43
-14.8
-28.39
-16.26
-5.14
-30.74
-7.17
25.91
41.34
12.92
-1.31
3.88
-27.18
-62.6
-55.8
-68.15
-77.24
-28.48
25.27
21.52
27.11
52.47
56.04
8.41
-57.64
-44.45
11.19
31.94
-8.18
-32.05
-44.73
-27.41
0.25
-10.89
-13.35
47.74
62.02
59.02
77.31
77.78
39.14
10.93
-26.08
-3.89
22.4
23.85
12.43
15.81
-15.94
-58.68
-62.11
-39.26
-11.83
24.26
34.13
39.42
-11.85
-54.83
-36.1
23.22
56.03
43.78
24.3
17.3
31.3
24.27
5.94
-5.6
3.83
32.32
6.85
-65.29
-59.34
-21.81
6.27
-16.46
-5.01
19.31
58.54
30.88
12.89
-23.17
-133.2
-138.96
-89.49
-18.17
43.29
65.34
66.61
45.32
30.88
29.22
46.85
49.52
40.26
-21.53
-84.61
-104.9
-115.66
-73.67
-33.91
-0.45
25.13
66.29
98.71
94.81
83.52
84.6
89.89
59.49
30.76
49.71
38.66
-13.37
-32.54
-30.77
-27.33
-35.64
-24.84
-37.33
-71.94
-69.07
-28.07
-6.26
2.19
17.49
46.03
51.28
9
-25.96
-22.98
-2.62
8.73
1.03
15.97
31.55
49.09
42.9
15.95
-59.83
-143.42
-129.15
-38.03
22.49
44.65
34.99
27.17
24.58
42.7
43.23
63.67
41.13
36.08
11.48
-12.35
15.55
17.9
-7.49
-5.31
-29.78
-54.23
-25.04
7.24
24.95
44.79
14.9
-19.61
-14.99
-1.79
-21.32
-30.5
-1.88
52.71
81.73
45
14.68
5.05
-3.75
-26.3
-43.82
-32.85
-45.74
-99.4
-149.85
-94.73
5.03
61.29
78.16
72.73
55.92
45.2
29.45
34.59
55.4
57.12
25.76
23.8
-1.68
-47.05
-45.19
7.28
15.31
-3
-57.54
-55.97
-3.38
47.64
54.38
28.28
0.11
0.82
-6.14
-25.46
-22.09
30.3
25.65
9.86
15.56
19.48
29.2
30.53
3.31
-27.48
-35.69
-33.74
-32.27
-45.66
-51.82
-42.29
0.55
35.24
38.77
47.46
63.25
67.96
80.78
71.99
19.81
-19.51
19.88
-5.63
-45.47
-59.82
-91.33
-81.01
-48.77
2.51
5.09
-4.87
1.83
20.71
29.87
7.08
-59.91
-105.43
-5.97
64.35
87.32
75.8
54.87
52.75
33.72
-5.55
-15.45
-23.79
-67.57
-76.73
-40.55
11.04
9.54
-27.32
-68.24
-31.56
68.32
111.58
89.23
26.41
-39.47
-133.25
-72.24
26.15
59.3
62.32
21
-38.35
-43.16
13.88
62.42
79.38
37.98
-6.49
-0.63
5.57
18.8
39.68
60.15
48.53
18.58
4.61
-31.14
-71.64
-75.02
-55.15
-61.35
-33.36
29.04
50.51
6.4
-29.6
11.3
62.57
32.45
-12.98
-34.96
-38.22
-65.4
-58.61
-40.69
-36.98
-32.53
5.51
39.94
63.34
86.23
77.49
43
21.75
40.66
57.48
7.7
-24.41
-24.09
-3.42
-31.81
-22.29
28.77
42.53
5.49
-52.15
-112.69
-106.49
-34.38
37.29
69.39
70.3
17.43
-9.26
-19.3
-13.63
-14.79
-21.09
-20.65
-13.77
15.4
47.04
37.37
25.05
36.93
37.72
33.9
39.4
3.93
-7.53
-9.83
-2.82
-57.85
-89.54
-59.05
-31.18
-58.22
-49.42
16.57
53.52
46.84
44.44
19.43
-14.45
-30.3
-4.07
29.38
48.88
74.73
66.97
18.74
-12.5
-53.88
-93.99
-111.5
-80.94
-9.69
50.19
34.15
-22.96
-20.11
-36.96
11.92
92.55
137.56
131.59
91
60.33
45.29
33.67
26.73
-33.3
-83.18
-113.78
-94.31
-37.48
-8.51
-13.98
16.39
38.36
15.08
10.07
11.9
48.43
84.6
52.07
33.35
-9.85
-36.05
-83.24
-67.6
-65.95
-53.87
-5.48
22.13
-9.52
-49.67
-56.71
-25.25
-1.98
9.9
52.01
54.17
-32.95
-36.72
41.09
96.02
88.92
82.29
92.24
65.23
21.28
-6.01
-42.35
-85.47
-83.69
-70.06
-28.43
-3.64
10.08
7.44
0.88
15.14
30.24
34.73
30.46
-22.46
-6.25
31.32
11.57
-2.53
-7.56
-8.98
-14.14
-19.57
-15.61
-6.52
-1.17
0.94
-0.9
1.46
2.8
4.47
5.05
2.15
-4.04
-2.74
-0.82
0.7
-3.56
-7.82
-11.22
-14.16
-17.51
-16.95
-15.27
-12.48
-6.32
-1.14
-1.48
-2.76
5.02
7.14
5.54
6.91
5.63
3.31
-0.62
-0.73
-2.77
-6.67
-7.46
-7.94
-7.02
-3.59
-8.85
-14.92
-13.39
-5.6
-1.49
0.53
3.99
7.11
7.37
9.66
7.15
5.54
4.2
-0.7
-3.77
-3.02
-3.82
-4.48
-1.75
3.12
-10.89
-16.64
-6.88
-1.54
-3.09
-6.62
-3.15
3.44
9.18
11.33
12.43
8.33
4.87
0.44
-6.18
-11.82
-10.87
-9.04
-8.88
-11.45
-14
-12.9
-6.81
-4.51
-3.21
5.57
8.8
6.91
8.76
12.35
12.53
9.54
8.57
5.2
1
-4.62
-3.48
-3.79
-4.66
-5.72
-3.33
-7.03
-17.78
-19.51
-10.05
-2.01
3.99
9.49
8.1
0.21
8.58
15.15
7.47
4.72
4.39
4.49
0.7
-1.55
-2.59
-6.62
-14.92
-19.1
-12.67
-10.55
-10.37
-8.57
-2.17
-0.22
1.4
6.77
9.37
11.86
11.44
9.26
6.95
3.04
1.5
-7.89
-14.67
-16.32
-11.64
-11.02
-6.71
2.2
9.41
10.87
9.88
9.17
13.55
12.61
4.2
0.74
3.4
2.29
3.08
5.61
2.88
2.07
-1.18
-9.44
-11.6
-11.85
-16.4
-15.42
-3.04
7.39
13.84
5.93
0.12
6.24
10.51
3.83
4.48
6.03
6.09
6.31
6.91
2.26
-5.86
-15.08
-22.38
-25.22
-16.34
-8.37
0.29
4.91
5.19
8.44
9.92
9.17
7.05
8.39
7.81
7.17
7.53
2.81
1.92
-3.31
-5.59
-5.29
-9.05
-17.33
-21.73
-20.99
-15.76
-5.55
0.09
1.79
3.13
5.12
6.63
8.96
9.82
9.19
8.03
5.02
5.77
0.51
-5.37
-5.92
-10.16
-11.46
-11.71
-10.32
-10.36
-6.97
-4.29
-1.35
2.63
6.08
7.94
9.1
11.06
9.07
6.85
6
5.84
5.63
-1.25
-5.86
-7.43
-12.83
-15.9
-16.77
-12.7
-9.27
-5.13
-3.19
2.27
6.87
9.83
12.78
16.21
17.35
8.7
10.07
9.58
2.2
-5.45
-1.54
-8.45
-25.89
-24.21
-15.46
-8.79
-2.41
0.4
-0.24
3.98
-2.77
-9.06
-1.94
5.5
9.84
8.4
6.31
1.04
-5.71
-4.25
0.15
-0.1
-1.54
-4.47
-4.69
-0.93
-5.98
-15.75
-14.1
-8.49
-2.16
0.09
1.3
1.81
5.22
9.17
6.13
1.77
4.17
4.6
0.02
-1.29
-9.02
-17.74
-17.03
-16.23
-14.43
-20.1
-29.69
-49.97
-40.71
-17.25
0.55
24.68
37.47
39.77
36.45
28.45
8.54
-3.42
-8.61
-15.72
-20.44
-14.4
1.31
-9.13
-56.5
-51.77
-12.06
-8.22
-4.21
15.86
10.99
5.6
17.8
30.45
20.4
8.65
4.49
10.42
9.58
4.56
-20.75
-20.78
7.89
13.31
-0.68
-0.26
0.49
-13.29
-1.46
8.44
7.85
7.64
16.55
27.88
22.95
8.48
-0.78
-0.15
1.87
-0.43
-10.65
-20.6
-17.62
-4.35
-1.18
6.84
15.92
18.75
21.93
25.18
-2.96
-21.35
-9.06
5.5
-0.09
-12.04
3.03
19.49
20.97
0.92
-24.32
-37.54
-14.88
3.98
-1.87
-13.76
-29.79
-37.81
-24.16
-7.73
-2.83
-7.45
-17.65
-25.27
-16.24
-5.46
-32.17
-83.26
-94.74
-54.92
-7.81
19.61
43.99
62.12
44.56
13.77
-7.88
-3.48
7.79
-18.54
-18.64
-0.82
8.25
7.16
-12.52
14.55
9.5
-67.63
-81.4
-11.78
41.38
45.81
18.81
19.24
12.26
-29.31
-34.84
-5.17
-12.93
-32.82
-18.22
8.2
-6.41
-0.17
38.3
66.11
50.19
26.67
26.27
28.21
3.59
-11.18
-34.95
-24.81
17.1
23.04
-23.52
-63.95
-52.44
-17.63
-50.23
-31.33
45.55
22.17
8.64
31.19
48.43
41.44
65.8
63.41
26.53
20.82
17.38
-15.04
-27.33
-23.24
-23.77
-48.68
-52.56
-68.88
-94.2
-51.27
20.68
42.25
31.16
37.19
69.96
69.94
26.74
-4.88
-9.67
-8.19
-15.51
-7.03
-2.42
6.18
-3.56
-42.67
-63.56
-20.46
17.96
31.36
10.84
-5.92
-5.13
8.35
27
5.01
-13.75
-1.63
-3.4
-1.08
28.61
49.98
48.66
18.22
-59.2
-72.95
-2.88
47.18
22.52
-9.24
18.21
43.23
18.75
-13.19
-45.04
-42.39
-12.05
13.91
0.4
-42.35
-70.15
-27.74
-12.24
-5.04
3.36
19.94
51.61
50.27
4.5
-9.78
-16.45
-13.47
-7.51
36.62
56.27
48.75
55.41
43.13
-10.19
-41.51
-30.38
-14.7
26.05
69.22
39.31
-17.41
-87.18
-108.88
-111.67
-85.57
-48.47
-35.35
-58.33
-65.96
-10.95
79.09
115.23
129.77
162.98
188.78
166.63
73.52
-8.2
-26.81
-55.92
-91.34
-52.56
27.37
52.15
33.09
35.36
53.54
80.11
105.86
76.72
59.96
18.1
19.87
34.55
61.58
19.59
-37.68
-61.56
-52.27
-19.79
14.71
45.52
75.24
90.64
46.57
-17.93
-99.94
-101.92
-62.84
-26.66
26.24
74.71
100.51
69.76
51.08
-13.95
-84.69
-88.37
-83.1
-67.47
-65.73
-52.88
-49.39
-36.36
-81.74
-109.32
-96.06
-77.3
-57.27
18.74
58.46
40.11
16.3
28.4
30.6
42.3
30.4
51.24
49.41
6.22
-27.47
-10
-9.33
-74.47
-91.07
-111.1
-108.81
-71.89
-22.46
-14.49
-16.83
-17.99
-48.12
-11.37
16.25
-25.17
-54.71
-77.03
-82.11
-48.38
-12.83
6.93
48.67
85.16
66.44
12.78
-1.31
-26.38
-23.52
-7.66
-35.61
-87.68
-80.07
-39.06
-26.49
-16.92
24.02
-1.65
-9.86
-34.29
-113
-149.43
-108.95
-36.01
64.53
105.7
60.77
56.13
75.55
36.41
-73.87
-119.49
-8.22
92.58
52.57
-32
-88.55
-121.78
-28.03
42.09
100.16
141.29
127.8
75.33
21.37
10.03
29.03
30.46
28.71
2.45
-16.38
-3.79
8.94
25.67
36.72
36.06
62.87
58.3
49.99
-37
-129.04
-168.77
-85.63
6.27
88.62
50.27
-37.15
-67.57
-36.16
24.29
47.06
20.01
-27.88
-23.42
-5.79
-16.55
-50.69
-43.16
-6.59
55.33
85.82
49.84
-22.65
-82.27
-57.4
6.56
20.72
25.97
31.54
26.86
-28.04
3.53
71.36
77.92
70.58
83.01
90.22
76.66
41.01
-15.96
-95.3
-142.84
-100.94
-48.63
-28.77
-9.69
-5.13
-11.48
-3.03
53.27
35.73
4.39
0.79
10.73
-4.06
-47.35
-72.91
-107.33
-102.86
-19.22
25.72
56.44
35
33.88
54.96
65.5
67.98
71.09
20.84
-17.85
-46.75
-62.86
-29.37
3.12
40.76
34.63
-2.13
-46.17
-113.34
-112.48
7.08
95.31
105.93
63.79
34.91
40.7
46.18
60.04
41.15
8.81
-38.73
-77.25
-105.99
-116.35
-97.6
-15.29
95.53
121.56
100.33
54.96
27.36
15.59
-37.5
-20
3.66
-1.54
-14.32
-38.86
-136.28
-193.14
-146.96
-127.45
-22.43
57.68
79.96
64.59
82.89
89.77
75.02
79.32
58.61
-1.54
-81.05
-164.08
-124.79
-44.98
-5.86
40.68
40.41
13.04
64.76
94.06
76.03
48.73
41.69
71.42
54.62
-50.04
-58.48
38.88
96.08
38.17
-40.96
-108.88
-100.68
-36.61
-31.13
-49.99
13.95
61.6
85.96
43.6
5.94
-9.48
1.54
-26.01
-91.81
-133.54
-139.73
-13.84
109.27
152.12
56.36
-19.44
-39.81
-3.44
6.68
-46.57
-73.82
-18.48
55.44
79.39
60.14
26.1
-93.53
-171.26
-162.48
-89.34
56.35
177.04
183.45
135.46
76.22
38.4
20.07
39.99
0.83
-69.43
-83.03
-21.54
30.89
-30.86
-71.47
-19.86
-5.15
-85.4
-167.29
-107.39
9.41
50.82
59.4
29.72
87.54
114.39
76.6
7.49
-73.15
-100.55
-50.64
23.64
17.37
50.38
72.91
27.91
-12.5
-89.9
-99.91
-114.3
-121.57
-28.96
86.42
118.19
99.6
116.91
110.97
49.73
-15.96
-72.67
-130.6
-75.92
28.11
65.26
67.94
40.48
21.12
14.84
-15.16
-39.24
-45.39
-49.27
-45.37
-32.2
9.15
29.74
33.2
3.47
-66.47
-40.44
23.93
50.14
-6.42
-106.76
-151.01
-132.01
11.57
96.24
113.97
92.4
10.72
-44.39
-33.61
-12.02
-20.01
-2.96
43.42
62.69
59.17
-0.66
-50.55
-17.31
29.66
-85.37
-174.99
-103.82
16.63
72.77
26.47
29.14
73.8
113.91
104.82
72.5
13.62
-7.69
-16.31
-29.42
-18.18
-0.74
-10.24
-51.6
-99.76
-36.44
41.25
74.25
80.97
49.65
0.97
-58.22
-115.79
-71.73
27.64
92.91
58.41
10.25
19.09
0.42
5.12
39.63
48.28
-4.22
-57.26
-91.25
-113.33
-77.59
-59.78
-85.18
-23.77
48.98
91.4
60.93
45.32
64.89
56.87
32.38
39.25
34.73
47.31
47.25
-6.55
-113.22
-180.51
-100.73
-6.19
-17.18
26.83
21.87
25.78
4.27
-11.61
19.85
64
84
83.75
4.86
-44.58
6.43
53.63
83.89
87.33
47.58
-2.54
-53.04
-111.65
-123.8
-91.3
-28.64
39.96
93.36
77.14
0.65
-52.97
-46.24
-7.52
-3.35
-53.62
-66.98
-69.14
-26.62
-31.96
-79.75
-84.67
12.6
85.91
146.38
148.26
83.2
-46.54
-194.44
-197.78
-142.67
12.82
125.58
157.7
145.63
91.68
65.53
39.3
4.16
23.03
-5.68
-23.49
-33.16
-67.27
-78.15
-37.14
-37.1
-57.98
-68.89
-87.49
5.36
98.4
117.73
111.39
87.89
46.35
3.99
-28.91
-0.76
9.42
-40.37
-19.94
5.95
-38.82
-55.98
-38.63
-53.47
-132.07
-192.38
-114.35
54.42
163.59
153.84
120.11
90.76
57.98
52.59
39.43
-26.02
-34.08
-39.54
-39.73
-8.08
46.37
44.83
-26.43
-59.15
-85.64
-129.86
-167.37
-137.05
-78.84
34.52
70.23
103.96
200.66
217.27
148.92
48.46
4.31
-7.48
-26.9
-4.19
-21.81
-61.96
-66.6
-44.32
-16.26
-62.97
-136.36
-78.93
34.01
80.55
155.7
162.6
79.27
-88.09
-138.74
-84.23
-38.92
20.31
24.59
35.09
71.85
61.09
54.2
-4.84
-41.33
-58.15
-95.24
-134.12
-165.28
-91.77
34.68
120.47
95.85
5.08
-86.73
-87.85
-10.17
89.78
126.28
99.2
85.38
2.9
-71.62
-94.97
-101.04
-61.37
-30.91
45.1
139.46
129.19
83.02
-14.28
-49.28
-54.19
-69.57
-31.04
30.83
-12.14
-98.77
-49.78
39.13
25.45
-41.98
-65.21
-71.68
-2.08
89.16
116.39
84.27
71.8
70.52
57.4
6.17
-79.24
-128.98
-145.5
-92.49
19.34
128.79
161.58
129.04
60.7
12.61
-34.19
-85.18
-86.45
-60.31
-25.76
-1.68
-31.37
-95.63
-73.26
27.29
10.35
17.17
73.06
86.58
37.02
-7.27
-16.22
7.24
7.08
11.88
-2.82
-16.44
16.93
53.59
28.82
-33.45
-93.71
-123.27
-27.74
56.25
19.51
-85.53
-109.47
-53.97
17.37
92.95
101.89
105.07
115.44
72.16
2.91
-36.73
-55.64
-52.92
-0.17
42.35
46.03
3.39
-31.77
-32.31
-11.01
-39.02
-134.91
-201.19
-130.21
-63.27
-18.65
-4.53
0.78
110.32
193.21
208.59
186.92
59.92
-5.67
34.06
0.51
-94.97
-59.65
-19.45
-16.14
6.34
29.33
-4.25
-88.76
-143.27
-98.51
12.6
55.87
82.95
95.9
58.97
-26.88
-141.38
-143.18
25.09
108.57
65.61
37.87
29.6
49.59
72.57
76.43
45.36
-17
-26.76
-6.16
36.75
46.72
-1.39
-43.9
-100.13
-203.48
-221.44
-117.07
30.52
146.9
134.97
38.76
3.03
20.7
76.81
122.12
48.56
-44.9
-68.95
-90.63
-74.51
1.12
73.21
91.72
67.29
15.86
-7.83
-16.97
-67.59
-94.47
-101.61
-43.04
48.71
76.85
55.55
43.7
49.09
72.72
71.14
-49.87
-107.02
-117.35
-158.8
-167.28
-77.06
44.88
135.83
72.64
14.08
11.51
50.8
65.72
-4.51
-40.51
1.13
11.53
4.72
15.81
57.24
64.97
-14.38
-47.66
-11.83
-33.98
-108.42
-114.93
-94.23
-121.73
-91.17
69.36
149.73
193.36
171.42
125.14
100.1
34.82
16.74
-12.27
-131.4
-190.96
-118.01
8.29
35.48
32.53
39.31
58.53
73.27
48.85
-51.12
-187.21
-282.67
-203.67
-32.24
133.39
191.08
162.63
137.49
103.67
97.27
57.43
28.33
-52.65
-116.45
-100.33
-46.78
-26.99
-6.35
20.54
38.51
25.13
-1.96
-9.38
39.6
81.72
52.12
-57.84
-128.21
-184.56
-195.71
-154.2
-100.43
-22.41
24.59
96.69
101.68
132.24
110.05
132.38
49.5
-54.57
-31.91
26.68
56.5
-26.09
-73.88
-20.33
40.14
60.88
80.82
71.57
40.52
39.38
14.56
-79.21
-142.85
-155.23
-121.56
-131.02
-114.09
-54.89
101.95
199.53
205.67
163.4
58.68
-58.14
-101.58
-49.23
-83.92
-98.04
-53.17
-26.95
-1.01
-2.6
32.95
113.69
103.05
55.44
4.95
33.56
47.85
-0.27
-50.96
-54.19
-10.85
96.89
37.72
-103.47
-123.68
-20.23
60.79
87.81
52.45
-18.33
-72.95
-70.13
-23.16
48.2
25.35
34.36
81.88
65.74
28.3
-85.15
-173.61
-101.74
31.65
89.12
96.7
21.72
-42.64
-50.78
-59.01
-6.3
88.5
97.93
91.28
107.01
50.86
-70.2
-132.25
-171.22
-205.55
-231.78
-196.67
-63.36
109.35
213.09
204.93
116.41
60.21
67.56
39.84
-8.9
-48.14
-64.59
4.93
79.72
69.86
19.36
-62.92
-115.54
-78.01
0.9
23.97
-1.79
-59.94
-75.26
-104.26
-117.28
-98.11
-69.61
29.7
110.69
169.68
201.52
173.42
108.14
-47.36
-154.62
-218.35
-261.04
-164.55
-11.33
82.71
126.79
186.76
125.78
24.47
-7.71
42.97
56.11
54.13
80.44
61.23
11.53
-30.1
-13.86
43.59
36.99
-32.88
-93.03
-125.57
-105.46
-54.59
-77.32
-115.54
-104.73
-92.89
-103.84
-40.53
93.69
105.07
17.91
23.9
101.17
119.38
89.87
64.68
14.73
-60.95
-36.23
8.22
-1.88
5.26
16.14
59.75
108.83
32.09
-123.16
-214.07
-184.76
-45.87
109.29
152.55
115.86
48.64
53.2
52.44
23.24
-21.52
-36.05
-57.18
-77.2
-90.29
-119.83
-81.15
-16.53
25.12
-4.9
-38.83
-28.14
-13.04
38.08
29.45
-41.73
-121.01
-80.03
-15.35
65.94
100.95
110.06
124.99
109.37
70.12
16.47
26.56
-12.04
-30.9
-16.62
-23.1
-89.19
-54.1
34.23
59.83
4.29
46.47
91.43
51.12
10.45
18.29
-70.68
-120.4
-102.34
-47.88
29.28
64.46
-0.46
-59.54
-95.16
-104.44
-63.5
-25.16
34.05
31.49
20.71
6.81
-19.35
19.95
80.25
82.79
-5.49
-144.5
-122.69
22.78
131.71
140.99
131.48
101.18
85.44
56.68
-30.25
-100.64
-129.67
-150.96
-91.36
19.4
68.63
103.74
103.25
105.78
78.12
-5.94
-34.89
-31.42
-13.51
-48.7
-66.92
-108.39
-133.36
-132.87
-97.97
-24.29
30.82
90.49
136.28
136.08
128.56
112.06
46.39
-49.45
-145.88
-142.99
-125.1
-48.1
43.73
48.04
43.73
46.69
32.08
10.16
26.55
27.3
-11.46
-13.67
-71.37
-104.45
-35.7
-16.29
-34.62
10.66
9.43
50.47
100.95
65.55
-0.06
-120.01
-207.96
-54.36
96.56
99.81
78.5
93.01
103.24
98.24
56.18
-31.4
-120.56
-206.5
-171.51
-22.77
54.87
95.31
102.89
22.31
-44.52
-36.18
-24.75
-10.3
25.05
29.76
-5.71
-5.02
-31.98
-21.67
7.42
-10.89
-3.73
34.14
61.25
15.03
26.64
39.47
1.79
-62.38
-90.97
-75.17
-41.73
13.93
54.83
40.72
-35.97
-108.71
-74.88
41.32
89.99
59.14
3.38
-11.37
27.88
15.25
-42.72
-48.55
-1.56
36.27
61.68
55.81
-5.48
-70.67
-94.18
-125.73
-152.33
-48.49
68.53
117.68
112.93
88.37
70.52
35.86
-23.67
-41.99
-165.76
-227.95
-131.11
-17.12
84.8
140.78
165.1
160.18
134.17
79.56
22.37
-13.06
-45.75
-96.12
-142.37
-106.42
-24.27
-50.68
-145.36
-90
61.31
122.63
108.31
58.6
51
75.58
38.28
-33.22
-157.11
-158.61
-62.16
-15.04
-24.84
-12.75
41.79
109.45
102.32
48.46
2.19
-34.06
-28.9
-1.14
27.7
-1.95
-46.44
-63.86
-11.84
-1.29
-20.25
-0.78
58.46
43.4
24.71
15.9
-16.44
-62.54
-77.73
-8.33
54.51
58.95
58.55
77.15
42.91
-104.15
-129
-40.08
-4.18
-55.75
-27.36
26.13
62.07
80.32
31.92
-11.21
-4.79
-3.14
-16.01
-83.08
-69.44
-14.21
38.14
44.81
38.67
52.36
62.53
53.77
36.92
35.23
-29.11
-152.46
-150.14
-84.31
-84.48
-72.44
-9.74
27.61
98.92
129.39
126.66
71.42
9.47
-24.81
-59.73
-25.19
29.97
51.95
62.51
85.17
-9.98
-53.93
12.87
26.4
9.21
-18.73
-101.41
-172.39
-248.27
-211.91
-84.95
39.36
146.61
201.54
177.88
140.27
102.96
54.01
2.33
-81.15
-129.18
-147.45
-112.77
-22.59
42.55
59.79
34.77
30.61
67.2
76.93
37.81
-9.28
-21.95
2.74
44.81
20.64
-40.58
-69.22
-27.46
36.28
74.16
32.91
-37.85
-62.68
-46.95
11.96
35.83
39.56
24.3
-17.31
-53.49
-40.74
6
11.23
-25.85
-52.99
-68.01
-38.01
-52.63
-32.42
9.9
75.49
98.07
64.48
18.75
-2.57
-31.74
-43.37
-58.5
-49.92
-19.5
5.99
37.16
21.72
9.74
4.42
27.16
54.22
40.83
4.63
-8.76
-48.28
-82.62
-62.24
-28.01
-107.61
-165.36
-78.71
-1.37
65.06
133.15
135.67
107.55
91.14
55.77
35.79
63.55
53.69
24.7
13.31
-37.25
-71.11
-91.11
-114.95
-137.28
-189.73
-145.26
2.68
84.76
117.72
114.63
96.92
57.59
18.39
-35.77
-136.78
-179.1
-42.08
122.97
149.88
88.37
67.05
67.54
38.53
-55.25
-94.76
-97.19
-99.91
-56.42
-5.15
44.91
96.13
110.83
71.18
6.27
9.5
51.92
57.62
23.05
-26.83
-89.24
-84.38
-16.79
-24.82
-50.28
-31.25
-56.89
-43.32
-23.61
-6.67
-52.42
-26.61
21.05
86.98
123.06
115.97
68.25
-4.55
-49.64
-73.26
-103.74
-102.9
-38.36
76.09
103.77
98.39
86.17
53.17
21.52
-2.43
-22.63
-41.63
-125.91
-180.52
-162.77
-113.66
18.57
127.53
154.79
114.73
35.39
-19.2
-48.25
-55.82
-3.03
31.72
61.02
53.75
-3.96
-54.11
-36.42
-26.01
-33.44
-42.79
-13.08
2.32
36.67
102.86
69.79
5.28
-32.64
-83.63
-52.06
15.09
31.91
19.72
11.76
18.59
-7.18
-11.37
33.26
12.17
-46.32
-65.52
-74.76
-8.24
77.58
66.26
55.26
39.52
41.82
60.57
-4.45
-33.03
-76.96
-131.94
-118.63
-65.6
16.7
58.76
16.3
-33.02
-28.49
-35.02
-125.55
-145.09
28.71
199.55
202.57
136.1
83.37
63.6
46.71
30.88
16.7
-10.14
-54.24
-125.95
-196.61
-218.82
-95.78
41.72
93.41
104.57
88.81
73.11
70.68
9.46
-85.65
-57.52
30.89
31.69
-24.44
-62.87
-50.23
-62.06
-52.38
5.72
52.13
75.89
69.49
55.26
58.21
-46.93
-144.17
-163.95
-119.22
-21.84
81.88
115.59
104.95
100.53
89.47
49.92
42.47
53.88
28.42
-41.26
-94.81
-122.9
-104.54
-50.63
-35.1
-39.44
-24.79
35.99
84.8
79.04
15.71
-46.79
-43.33
-59.9
-91.77
-47.77
19.32
65.95
106.03
113.58
24.81
-41.94
-21.67
19.16
11.96
25
36.28
13.78
-67.47
-148.3
-99.95
-43.94
-15.1
43.05
55.98
56.04
58.37
51.82
66.51
48.15
5.13
-51.28
-71.72
-105.96
-119.01
-117.39
-66.65
42.28
165.49
174.02
64.01
-1.78
19.18
38.45
36.94
23.96
-57.98
-102.14
-107.71
-112.49
-17.32
-11.07
-46.72
-20.15
20.16
71.03
114.87
111.39
69.76
-4.77
-54.46
-73.91
-72.18
-7.46
60.1
8.17
-110.66
-155.94
-71.41
20.23
129.19
156.18
110.7
64.91
22.7
-8.54
14.13
16.15
-17.25
-49.11
-34.81
-41.97
-18.08
-28.89
-49.9
15.12
85.48
94.9
36.32
-85.53
-156.01
-119.56
-18.54
65.03
23.33
-49.26
-42.92
33.13
95.32
69.66
9.55
0.19
-3.43
-6.51
16.96
23.59
35.5
31.52
-0.19
-10.19
-24.38
-71.51
-78.58
-111.16
-99.07
-38.47
-1.54
70.1
108.01
115.38
105.63
62.78
-7.5
-64.01
-97.99
-76.27
-70.42
-85.25
-109.49
-70.68
17.01
135.65
176.58
156.34
111.39
63.77
13.38
0.16
-20.43
-8.22
-55.82
-106.78
-92.74
-15.31
76.17
88.12
52.61
-22.89
-62.71
-34.67
7.87
1.94
-33.78
-90.09
-127.48
-47.56
39.46
61.84
29.56
-10.82
-9.32
3.66
-11.96
-50.15
-46.57
35.71
52.74
41.34
44.48
58.59
74.23
92.97
92.11
47.36
2.84
-58.4
-97.59
-123.5
-166.18
-188.45
-194.11
-83.94
86.56
177.98
202.32
171.56
106.65
30.26
-3.35
-22.9
-19.58
-8.8
-21.81
-16.92
-23.43
-10.4
-11.03
-25.48
-22.12
-13.5
-27.89
-45.16
-24.73
33.95
20.62
-17.89
-13.78
1.66
4.4
-34.13
-64.54
-80.13
-78.16
-46.3
16.94
74.6
92.1
42.79
26.71
49.04
30.48
-12.81
-35.61
-99.38
-156.41
-143.75
-88.88
4.8
110.17
168.26
166.81
163.78
145.71
48.97
-67.75
-77.39
-84.8
-133.91
-122.54
-103.87
-3.99
51.4
69.36
50.82
8.61
9.78
3.47
-8.44
21.74
60.07
73.69
64.9
44.49
2.91
-25.3
-41.37
-43.01
-113.73
-218.3
-246.22
-155.08
-21
82.47
117.5
140.11
148.28
127.17
98.76
60.37
-30.58
-111.96
-129.38
-57.73
19.2
1.37
0.87
8.36
19.74
32.46
43.11
16.36
-31.7
-30.29
5.07
1.96
2.06
-12.06
-59.65
-71.47
-34.36
-17.15
6.76
45.17
81.51
88.78
49.31
22.99
22.64
15.06
27.03
40.57
3.12
-14.36
-40.1
-75.55
-103.55
-87.98
-14.93
66.43
86.5
0.13
-58.88
-42.19
10.75
18.06
11.52
58.77
30.09
-30.57
-48
-102.92
-119.15
-79.41
11.07
108.65
134.16
107.94
82.67
68.85
43.38
20.03
0.55
-32.65
-19.7
-56.82
-113.73
-101.9
-18.37
26.08
7.15
-17.17
2.45
19.26
6.47
-28.89
-25.35
12.76
54.33
63.47
48.48
56.37
52.59
27.69
18.01
-38.73
-84.57
-93.98
-180.89
-216.85
-147.98
-45.67
41.18
118.23
161.27
154.83
130.14
96.15
62.24
58.17
40.42
-10.27
-26.59
-25.1
-59.74
-102.99
-110.96
-42.82
31.04
61.11
86.73
61.62
-9.37
-30.26
-18.59
22.01
-3.11
-39.83
-35.93
-45.99
-17.91
26.15
59.74
51.57
43.84
7.53
-24.48
-30
-30.4
-40.88
-83.05
-99.18
-103.21
-94.04
-14.48
51.74
70.12
66.72
67.37
59.94
56.33
37.2
46.83
46.51
25.4
24.06
27.17
-43.83
-134.72
-153.28
-64.42
20.99
70.9
97.14
86.79
47.54
16.54
-2.32
4.25
3.28
48.1
71.63
7.67
10.57
7.99
-21.07
-46.2
-52.11
-82.74
-75.61
-26.91
23.35
39.66
6.9
-55.9
-65.57
-28.15
32.06
28.09
6.29
15.84
22.62
59.39
38.93
-5.53
-42.57
-16.08
34.64
67.59
59.94
0.02
-74.27
-133.9
-185.52
-183.19
-113.95
-52.89
27.56
85.38
88.24
98.02
92.77
71.4
75
106.24
128.17
63.13
-33.18
-49.85
-18.02
-43.81
-68.42
-83.24
-83.39
-61.05
6.95
84.53
129.58
72.19
20.64
-5.31
-21.73
-19.19
7.76
-38.82
-99.57
-119.44
-61.37
55.74
110.75
131.53
124.76
80.15
34.74
11.61
-22.34
-55.5
-93.17
-147.33
-196.77
-143.02
-0.78
73.06
66.85
62.12
63.55
67.4
60.19
24.6
28.06
30.35
20.07
-21.59
-92.77
-161.38
-139.07
-57.95
23.15
56.28
51.98
41.74
32.42
-25.45
7.72
54.51
19.41
10.34
24.78
26.9
29.68
22.62
12.82
16.87
-48.39
-96.26
-59.79
-14.2
19.07
20.54
12.34
40.79
55.32
26.74
-38.39
-69.52
-31.65
-39.66
-52.19
-51.31
-14.14
-17.42
-22.81
-7.52
-1.51
9.25
8.25
34.24
82.93
88.04
67.25
17.75
-25.43
-78.23
-128.23
-101.46
-94.51
-36.78
70.62
133.68
145.84
114.78
88.4
42.78
-25.94
-89.25
-70.94
-41.05
-63.42
-15
54.87
35.65
22.28
7.74
-23.12
-34.7
-7.02
41.49
78.82
81.62
63.59
32.53
4.26
5.93
-11.62
-94.56
-142.18
-150.21
-99.77
5.56
68.77
46.96
27.36
-2.81
-22.39
-59
-11.62
72.43
74.45
53.17
10.76
-42.23
-36.6
-23.92
6.61
-27.54
-100.69
-79.03
-41.16
18.04
71.57
100.56
113.43
93.33
46.4
-11.04
-31.41
-14.36
32.73
24.79
15.27
6.19
-20.47
-10.98
15.24
-1.49
-36.06
-36.93
-33.83
-61
-83
-103.07
-70.92
-20.09
31.56
61.12
90.29
75.56
47.94
5.39
-25.74
-18.94
-15.11
-66.56
-53.91
-36.09
-48.74
-24.51
-9.89
-12.05
-4.24
43.66
100.75
96.49
63.42
13.06
-30.92
-47.61
-21.4
-12.85
-44.76
-40.47
-18.49
21.4
71.27
122.31
86.93
36.76
-27.22
-56.45
-44.65
-45.54
-72.62
-113.03
-126.03
-74.38
11.06
70.24
114.95
115.31
109.23
96.67
69.08
34.23
-26.06
-52.04
-62.2
-96.69
-106.49
-78.48
-44.04
-45.34
-11.21
46.69
71.62
42.68
-1.83
-14.06
48.79
70.77
77.52
67.15
35.22
-24.25
-69.67
-101.39
-109.43
-72.01
-45.59
-4.59
21.16
23.31
38.28
65.24
40.85
-29.37
-27.36
-37.56
-108.09
-158.03
-32.18
118.24
163.88
143.96
115.03
96.12
67.3
26.43
-3.87
-15.61
-62.65
-76.75
-91.34
-78.61
-17.2
1.52
-24.56
-51.65
-55.48
-17.16
-6.34
10.34
6.56
19
27.88
32.11
38.04
43.66
64.67
31.85
-18.93
-14.85
-17.16
-25.16
-44.73
-27.22
2.98
-16.76
6.07
64.52
65.45
6.43
-77.82
-110.66
-79.06
-41.01
1.07
42.33
45.58
57.5
87.49
87.15
44.58
-5.83
-44.23
-34.28
14.38
49.74
-9.65
-56.57
-58.76
-59.6
-45.65
-28.92
-39.26
-54.92
-21.29
-2.86
30.79
64.42
69.64
57.84
24.23
11.96
7.85
2.21
-6.64
-26.85
-71.15
-131.37
-154.62
-56.95
35.28
97.05
98.76
94.9
88.55
59.88
25.03
19.43
14.39
18.71
-16.15
-21.75
-11.03
-7.5
-2.02
11.38
5.99
-60.09
-103.04
-94.76
-54.11
31.51
100.09
127.32
97.89
43.98
2.7
-66.1
-121.57
-102.84
-72.65
-61.22
-7.84
12.72
17.28
23.94
32.5
42.74
71.9
91.77
65.58
30.09
26.96
1.88
-31.73
-41.63
-51.24
-32.61
-30.72
-75.18
-104.31
-72.01
16.95
75.77
91.24
85.92
93.51
84.59
47.11
-28.1
-49.28
-39.75
-17.38
-14.54
-74.94
-96.78
2.83
79.04
85.39
40.93
12.39
-27.8
-60.87
-67.19
-33.72
9
19.33
-16.59
-8.72
22.82
33.91
-6.19
-50.6
-39.74
-0.45
50.4
80.98
92.83
81.31
55.59
32.56
-11.47
-42.8
-72.87
-88.56
-126.38
-186.45
-185.72
-96.31
-10.02
82.82
128.12
137.35
135.28
107.69
66.47
61.69
39.14
-27.92
-26.63
-0.57
-8.68
-31.14
-78.36
-29.41
40.68
24.14
-37.54
-105.07
-103.93
-60.22
13.61
61.03
67.87
57.16
16.47
-13.83
-9.51
-22.88
-20.94
6.78
0.34
4.42
-24.59
-61.08
-76.09
-25.88
57.31
97.68
74.12
56.73
38.3
15.09
-39.08
-47.85
-59.13
-42.74
19.04
48.4
30.58
2.6
5.55
-3.69
3.74
10.66
13.1
5.7
-28.34
-36.3
-4.91
12.39
30.45
17.25
-4.96
4.61
19.74
28.01
24.11
-24.31
-42.9
-25.99
-43.17
-70.01
-30.11
10.74
0.82
2.62
15.25
26.92
48.2
81.39
95.44
49.56
29.24
-25.6
-118.88
-109.78
-57.1
1.5
42.88
54.41
36.97
22.09
-10.03
-83.62
-118.41
-93.09
-80.06
-54.78
14.28
46.37
38.22
67.69
80.24
51.68
45.22
69.29
67.45
55.53
81.54
67.28
27.08
-16.86
-40.12
-63.6
-67.23
-32.15
16.4
29.23
39.43
44.39
50.46
25.86
-26.6
-50.65
-66.48
-54.14
-13.86
-36.06
-14.8
10.29
-19.82
-20.69
-54.35
-18.22
36.78
76.98
94.06
77.15
32.96
-4.07
-29.88
-43.02
-40.46
-34.94
-29.94
-48.04
-55.33
-32.75
-35.74
-40.82
-56.82
-49.86
14.54
98.69
103.77
58.37
50.25
54.32
19.04
-7.77
3.14
-0.82
-62.84
-57.78
-14.37
54.41
58.58
-29.98
-94.26
-62.62
11.91
39.22
42.89
51.37
63.19
13
-46.63
-107.87
-120.72
-109.67
-50.19
24.7
42.03
29.27
55.24
75.55
40.46
-49.52
-109.61
-36.19
26.97
44.04
47.25
45.43
80.84
76.94
67.66
54.51
20.03
-3.29
-34.73
-80.31
-163.54
-152.73
-79.71
4.05
94.47
60.38
68.63
91.56
0.57
-43.58
5.98
35.49
37.87
66.15
60.14
-19.77
-111.41
-171.65
-104.5
-46.06
20.09
68.22
56.66
62.19
54.94
16.73
-21.86
-33.36
-41.51
-59.07
-15.53
15.61
-2.12
-9.19
-8.9
-1.04
26.79
33.36
4.08
14.03
22.97
34.05
70.93
85.53
69.35
59.29
50.57
1.97
-15.06
-4.33
-63.9
-111
-74.25
-53.01
-94.91
-134.73
-98.47
-38.29
10.13
69.01
111.92
107.66
29.28
-15.55
-26.11
-71.35
-46.85
9.75
30.37
14.96
-16.07
0.62
44.27
67.35
76.17
40.96
-43.59
-160.49
-180.82
-81.45
-37.21
4.96
74.34
139.78
172.75
128.03
85.56
37.7
-3.57
-36.29
-27.17
-8.23
-8.5
-20.43
-30.87
-40.15
-9.86
-42.49
-85.06
-64.75
-22.77
42.98
87.63
69.7
54.01
10.57
-25.1
-49.28
-33.93
8.75
5.06
-22.22
5.21
60.66
78.45
65.88
-7.48
-59.36
-53.71
-44.18
-59.52
-61.03
-38.98
-28.42
-9.13
25.47
39.35
51.84
70.49
46.35
12.96
-35.43
-46.57
-56.2
-1.17
57.01
21.92
15.46
-11.23
-29.16
18.33
57.05
47.28
42.36
67.29
58.53
39.19
7.91
-21.86
-30.14
-33.7
-14.86
-27.44
-110.67
-201.01
-186.43
-72.48
30.56
111.89
157.16
132.31
81.41
56.31
36.85
1.04
12.95
28.52
4.97
-26.04
-70.71
-125.31
-152.55
-114.33
-45.28
28.1
64.05
88.41
93.43
77.91
50.08
22.85
-13.61
-24.28
-3.71
35.07
45.18
17.48
1.62
-22.2
-27.64
2.27
-6.2
-65.55
-91.11
-49.29
-53.84
-45.75
-2.96
18.79
47.63
87.33
78.61
20.55
-20.31
-17.88
-4.11
12.64
5.5
-11.37
-15.39
36.38
43.61
23.57
42.83
26.33
-11.25
-25.42
-26.08
-25.36
-43.16
-82.7
-112.31
-87.92
-29.19
37.96
79.73
53.74
-1.48
-61.45
-59.81
-18.99
41.47
70
76.74
79.03
60.63
27.34
28.36
9.81
-40.66
-50.48
-56.69
-41.16
-11.76
-4.68
-31
-69.26
-86.61
-84.9
-71.25
9.25
71.61
54.17
-2.21
5.59
61.34
51.03
38.3
45.59
68.51
55.15
31.37
13.8
-25.4
-77.81
-85.74
-68.93
-21.82
10.49
35.84
75.82
42.72
-26.44
-41.16
26.99
67.77
42.96
-3.94
-51.78
-9.36
-9.2
-26.66
-41.78
-20.19
19.68
28.1
39.91
18.25
7.18
26.89
21.15
7.18
-10.28
-73.33
-107.13
-125.98
-80.38
-8.43
67.46
102.95
80.68
23.48
-6.92
-29.94
-39.83
-27.17
12.36
32.6
17.16
19.78
10.99
38.8
25.15
-36.62
-84.8
-70.03
-3.93
14.57
12.61
4.02
-38.1
-11.12
41.53
62.49
34.32
-1.63
-10.42
-4.06
-0.1
-16.81
-67.66
-144.53
-144.45
-87.93
-4.73
109.42
140.5
98.44
77.45
71.95
45.15
14.6
7.79
4.57
24.34
41.93
15.54
-43.94
-112.91
-136.55
-80.51
20.27
75.38
94.41
84.64
60.03
16.94
-9.04
-25.84
-27.53
-38.13
-56.39
-60.27
-21.4
12.68
8.49
4.05
-8.99
-34.78
-51.46
-44.9
11.05
98.53
123.56
100.43
70.76
41.02
19.17
-5.91
-39.72
-67.7
-49.39
-14.24
21.03
22.25
4.6
-24.6
-69.4
-50.52
-53.34
-65.5
-40.86
-17.65
20.86
19.23
33.8
42.18
-12.2
-66.76
-69.91
-21.5
38.51
71.51
72.52
24.32
-30.23
-46.02
-35.59
-42.4
-47.51
-48.31
-24.47
-18.66
-10.82
36.18
89.29
95.25
50.49
2.41
-23.61
-52.84
-23.66
26.55
57.57
55.94
17.68
-20.32
-17.4
19.5
45.32
33.72
1.9
45.47
46.57
-5.77
6.61
23.48
28.08
6.79
-9.37
-31.46
-28.75
-6.66
-1.74
-34.43
-29.07
-2.45
-9.39
-42.76
-97.51
-86.23
-38.44
19.21
20.59
12.1
52.7
62.4
45.91
51.37
48.45
35.08
31.7
-43.68
-100.49
-136.92
-198.83
-251.6
-170.77
-19.97
110.8
183.78
151.73
112.85
77.44
45.61
39.45
59.88
49.97
88.52
78.77
5.47
-20.74
10.05
5.61
-3.06
-11.84
-31.79
-30.89
-35.89
-26.37
-9.82
16.12
6.13
1.52
10.47
39.72
60.68
45.98
29.96
1.41
-27.23
-37.76
-49.3
-82.03
-143.39
-142.27
-71.12
17.16
64.05
32.94
-31.68
-56.61
-54.11
-16.67
31.87
46.04
70.93
83.26
88.08
62.41
56.1
32.32
-59.16
-148.08
-108.6
-0.78
4.86
13.44
33.81
34.47
54.92
70.52
78.61
80.91
88.09
63.09
29.33
-11.65
-33.01
-37.66
-69.16
-99.05
-95.92
-91.76
-50.95
14.2
36.28
4.83
0.04
6.12
-8.79
-0.12
56.7
73.68
40.69
-6.57
-16.84
-27.53
-35.84
-29.33
2.02
17.43
22.14
55.49
69.86
38.39
-41.42
-153.51
-215.17
-115.22
-25.78
8.83
2.84
18.84
44.35
52.48
71.61
77.8
70.57
67.17
88.57
52.46
24.58
18.85
9.85
-43.12
-80.97
-56.41
-8.8
-9.51
-49.74
-78.82
-57.31
7.52
57.68
71.86
76.43
18.47
-13.89
-36.73
-57.05
-34.32
29.69
64.21
78.26
65.33
32.87
34.67
18.05
-8.12
-18.97
-15.66
-60.75
-112.53
-116.3
-120.19
-115.51
-103.86
-46.72
50.82
124.3
131.03
98.71
76.55
87.61
49.16
-1.71
16.99
73.26
46.85
1.66
-23.45
-4.77
19.15
-27.68
-74.41
-81.5
-92.33
-104.89
-41.87
21.08
19.7
6.81
-18.02
-1.74
26.88
58.09
95.39
82.22
50.36
25.5
-25.04
-64.8
-12.12
10.68
4.51
-5.37
-41.71
-78.34
-111.87
-110.26
-66.59
0.59
76.16
112.95
79.69
69.49
65.18
67.61
64.86
49.02
7.78
-50.8
-91.91
-88.29
-52.42
-1.95
41.2
33.55
-0.22
-11.55
-24.17
-45.25
-35.82
-25.18
-19.66
-77.54
-106.16
-57.88
16.82
50.6
47.48
43.51
30.33
-7.85
-4.97
32.13
89.96
91.46
16.41
-10.3
-12.4
-21.4
-4.35
32.23
28.5
11.47
-2.56
-26.69
-54.33
-49.97
-20.43
28.23
7.52
-27.21
-18.64
13.05
18.2
17.59
14.92
23.85
41.95
42.11
21.14
-5.91
-21.85
-22.51
-71.67
-109.27
-90.86
-49.76
28.64
49.4
51.3
61.15
54.02
42.22
17.17
-12.26
-36.28
-75.68
-72.12
-24.32
40.78
54.39
39.85
37.61
37.92
36.13
16.02
6.8
-18.15
-13.12
-17.3
-40.26
-43.73
-7.51
22.81
17.17
1.93
-4.75
20.59
74.26
84.27
65.96
46.37
-17.09
-44.68
-40.28
-95.72
-108.36
-47.49
34.37
48.72
24.2
15.06
22.81
21.48
20.51
25.97
-33.61
-47.54
0.43
26.04
31.5
39.52
28.52
-35.16
-14.82
70.75
68.32
-22.77
-34.07
-0.01
16.98
-41.59
-54.98
-19.73
20.3
48.89
83.02
82.57
47.06
-38.35
-129.95
-152
-122.34
-108.36
-83.97
-3.8
93.69
118.09
110.72
99.98
95.5
69.17
40.17
12.39
-45.64
-69.39
-83.31
-126.39
-173.26
-178
-93.57
47.93
126.03
130.78
123.22
102.54
74.93
49.55
27.89
19.98
-39.38
-140.54
-160.09
-135.34
-108.7
-72.87
6.43
59.83
127.96
140.25
101.86
76.04
84.09
64.2
57.05
51.3
-2.42
-47.33
-105.91
-123.14
-80.12
-64.55
-53.89
0.19
43.66
62.17
47.95
29.21
45.37
59.49
41.23
39.79
48.79
50.39
26.24
-1.09
-45.58
-78.04
-50.98
-49.35
-120.26
-130.09
-101.3
-41.21
37.24
75.45
66.21
43.94
31.95
17.51
3.38
18.81
24.74
-25.02
-86.15
-140.17
-82.47
56.25
106.93
87.33
78.49
66.22
-10.33
-72.22
-50.26
-56.29
-142.25
-174.28
-112.13
25.58
139.82
167.37
122.68
78.34
87.51
100.67
48.98
8.85
19.63
-6.87
-47.51
-107.82
-115.89
-0.05
20.9
-38.7
-92.86
-112.07
-104.79
-12.75
90.71
120.35
117.03
92.94
50.98
13.93
-17.15
-18.03
13.25
1.62
-47.22
-78.87
-70.96
-61.76
-23.53
-14.46
8.76
9.53
-0.02
-13.35
-5.74
28.81
22.65
7.26
17.24
32.4
28.26
60.57
77.47
76.48
31.99
-55.97
-113.39
-162.09
-99.51
-35.29
1.63
32.04
41.7
82.48
113.64
93.93
65.87
61.86
63.45
64.44
40.85
16.43
-42.02
-96.07
-134.26
-115.43
-99.88
-58.09
12.17
47.47
83.39
55.69
10.41
-1.43
-31.73
-64.34
-78.77
-40.47
5.66
32.49
45.54
10.69
-22.18
-28.08
-27.97
19.42
74.53
54.06
-0.33
-32.87
-40.97
-69.85
-54.56
-11.92
62.88
126.87
94.09
41.26
28.67
36.09
8.05
36.94
57.12
14.98
-82.7
-130.35
-92.37
-14.72
70.86
93.03
69.66
4.7
-80.42
-99.91
-60.84
-25.6
8.94
32.64
47.9
10.77
-33.02
0.78
0.84
0.29
36.56
65.79
61.09
55.05
37.16
17.27
-37.58
-56.96
-71.55
-119.55
-128.22
-60.03
13.37
58.38
68.38
12.99
-17.34
16.81
58.04
87.62
100.31
63.94
-3.07
-22.2
-53.39
-98.54
-95.84
-101.79
-88.72
-44.81
4.2
26.08
41.8
96.22
117.54
93.02
43.86
10.3
9.45
-33.67
-46.84
-25.12
14.46
54.75
53.57
11.99
-31.79
-47.71
-19.43
-9.41
-21.08
-38.26
-46.25
-20.74
23.98
52.48
51.64
71.59
92.19
55.52
-18.15
-22.75
-39.85
-111.69
-177.92
-161.97
-109.3
-60.29
-17.61
22.99
63.34
72.06
87.3
100.81
104.39
44.94
8.13
-29.28
-46.95
-64.92
-27.54
13.66
28.98
8.61
-23.13
-41.09
-28.1
1.53
28.04
44.86
61.52
56.43
20.24
15.31
12.33
1.57
-10.35
-39.41
-60.74
-77.17
-54.88
-14.49
-17.08
-21.52
-16.09
-15.08
-11.6
32.34
20.85
14.97
49.39
72.33
72.6
74.01
38.05
-45.63
-97.55
-69.71
-34.08
-12.03
-16.87
-0.88
18.48
-12.27
7.51
43.06
13.14
-31.65
-41.09
-12.98
3.35
16.64
26.8
-8.2
-48.6
-34.69
42.04
82.94
53.16
-19.48
-68.97
-41.43
8.29
44.66
54.89
54.63
51.54
48.2
49.84
36.23
13.66
-14.95
-50.71
-92.16
-87.71
-33.18
20.07
53.6
46.83
6.94
-41.25
-28.1
4.12
-7.19
-65
-102.84
-74.94
-71.19
-76.02
-64.17
-0.42
75.82
86.83
78.79
45.55
12.77
-37.31
-106.01
-92.14
-48.71
-4.15
106.03
125.33
92.84
75.52
53.54
47.05
48.4
33.52
0.26
-44.3
-81.99
-84.76
-86.7
-99.16
-109.8
-62.82
-9.59
43.07
98.32
80.45
42.52
14.96
23.84
39.81
44.42
38.97
61.6
56.21
-9.04
-52.2
-70.27
-127.63
-101.47
-37.12
-6.42
27.92
67.73
86.67
47.21
-30.93
-75.35
-33.54
57.22
93.41
94.92
64.57
25.89
-28.66
-103.89
-99.3
-41.79
-34.02
-85.82
-43.66
-0.88
48.98
115.78
140.24
88.89
24.27
-3.74
-50.01
-109.8
-118.95
-73.1
-70.11
-62.84
1.67
42.19
32.35
39.8
72.98
85.7
75.71
42.3
19.4
17.38
45.93
23.41
-32.22
-90.72
-166.68
-134.16
-36.9
9.41
22.13
26.05
13.83
47.6
94.81
115.57
84.34
-3.93
-27.46
-37.27
-55.89
-66.09
-57.33
-23.86
25.08
39.3
79.57
64.79
-9.09
-61.23
-63.43
-74.49
-18.93
5.61
-25.06
-40.04
-41.01
-0.81
40.54
88.84
117.63
96.89
64.13
32.79
-21.14
-80.89
-105.92
-111.36
-125.48
-80.41
-34.41
18.33
69.06
98.58
111.98
108.08
84.21
46.25
32.68
18.62
-16.89
-73.75
-114.85
-114.45
-37.26
66.19
114.87
88.68
58.21
19.83
-24.17
-59.55
-57.13
-36.61
-4.03
0.54
-10.54
3.79
18.66
25.58
28.9
23.51
2.94
-16.64
-50.82
-62.17
-27.09
18.11
83.05
97.29
56.42
21.03
17
43.2
7.81
-42.12
-91.75
-118.34
-111.76
-82.03
-30.39
18.5
42.61
62.34
48.41
15.31
-48.42
-74.09
-84.91
-63.79
-19.72
53.55
88
49.34
13.22
23.52
67.08
113.89
115.28
70.49
-19.69
-70.83
-76.26
-75.95
-39.81
-12.8
6.47
15.18
33.27
69.92
32.33
18.15
49.49
56.96
18.09
3.95
-53.42
-95.02
-87.31
-83.57
-84.33
-68.88
-18.89
45.17
92.59
89.24
36.27
-29.79
-65.53
-4.96
83.94
98.24
43.32
37.6
43.27
46.85
35.93
6.93
-4.21
-36.6
-86.65
-136.93
-176.79
-150.24
-39.9
70.05
134.62
134.03
46.25
12.86
4.35
-43.99
-55.09
-19.05
3.31
4.76
2.08
22.39
59.28
76.79
75.82
56.85
35.03
-1.77
-80.17
-83.98
-83.79
-57.57
0.47
36.91
34.66
26.9
-1.08
-10.31
-18.51
-48.69
-33.82
-2.9
11.97
45.02
86.81
102.61
71.27
-6.7
-44.53
-76.44
-84.5
-66.02
-32.56
-22.26
2.83
13.43
8.45
7.06
-7.08
-3.98
54.28
81.34
78.93
65.62
20.77
-58.56
-153.67
-143.04
-96.41
-56.02
-30.75
6.07
64.08
99.66
137.56
146.22
94.93
50.51
30.71
4.77
-32.18
-65.58
-68.33
-68.68
-58.83
-17.71
13.54
19.11
15
25.96
10.63
25.82
37.45
12.52
-27.34
-48.91
-32.88
16.04
20.47
-7.75
-19.3
-23.99
-13.02
3.39
9.98
30.38
45.04
28.71
-18.98
-65.77
-109.77
-107.23
-60.78
-43.44
-19.12
1.23
35.71
89.3
96.75
69.06
29.53
-16.29
-43.38
-37.17
-3.32
-11.63
-51
-81.78
-72.8
4.2
102.14
145.28
154.13
139.29
86.94
19.85
-57.45
-101.91
-131.52
-150.66
-70.72
44.43
74.85
81.56
56.91
24.65
4.77
25.43
49.74
30.83
-25.95
-83
-113.81
-148.38
-190.65
-188.16
-96.17
56.99
146.23
157.31
121.95
82.32
58.89
49.05
41.96
25.3
14.38
-18.86
-68.19
-116.21
-147.06
-105.51
-8.39
37.49
24.2
17.05
53.55
109.69
107.01
87.99
87.76
81.96
37.53
-2.33
-86.84
-168.41
-168.23
-98.24
-75.42
-46.53
0.01
71.9
119.56
107.15
66.82
49.86
67.29
65.91
20.97
-43.96
-67.88
-57.55
-56.87
-88.77
-44.89
18.43
48.11
13.83
-3.1
11.85
13.73
28.44
48.61
36.99
-37.19
-87.92
-81.73
-26.97
34.28
41.69
70.34
85.79
48.73
-13.72
-85.64
-88.58
-44.75
-14.04
14.16
34.1
38.74
20.34
7.03
1.98
-38.71
-88.8
-82.18
-27.18
72.42
135.7
116.4
36.26
3.78
26.6
37.22
37.65
0.87
-37.18
-76.1
-169.84
-174.42
-89.91
-0.62
54.85
74.12
71.35
28.07
-9.13
-18.19
31.11
7.28
-39.63
-26.98
15.79
23.16
9.46
22.16
36.4
41.1
21.38
-3.42
-3.62
15.38
-2.13
-14.63
-59.04
-60.09
-15.4
-26.55
-38.48
7
68.83
76.08
37.1
3.44
11.07
31.62
30
32.22
7.98
8.3
9.39
11.26
10.41
5.45
3.55
-1.02
-4.76
-8.48
-8.41
-10.17
-11.05
-11.46
-8.02
-4.18
-1.27
3.55
6.36
11.56
10.81
2.03
2.31
3.62
5.88
3.98
3.19
-0.93
-5.84
-7.18
-6.96
-9.72
-11.65
-10.91
-14
-12.96
-6.09
0.6
5.66
5.4
5.34
13.28
18.22
13
10.22
16.41
13.47
3.41
-0.8
-2.03
-14.5
-20.54
-16.8
-12.25
-14.18
-12.67
-7.31
-5.73
-2.56
2.24
2.97
5.88
7.39
11.56
10.64
9.15
7.69
5.08
2.16
-2.81
-3.84
-7.18
-5.73
-2.8
-1.53
-0.99
-0.36
2.34
2.41
-1.92
-2.13
1.61
5.89
9.75
11.99
12.41
9.61
6.74
4.4
-0.52
-4.75
-6.69
-8.97
-9.85
-11.47
-11.88
-11.03
-8.42
-5.02
-2.3
3.28
4.71
6.78
9.75
12.11
14.15
11.67
4.09
3.08
2.45
0.06
-2.49
-5.23
-6.6
-9.13
-10.8
-10.13
-4.54
-0.06
5.56
8.44
9.29
6.49
6.25
5.47
8.53
10.35
10.26
5.38
1.8
-0.52
1.7
2.13
-3.38
-14.88
-16.47
-11.13
-10.12
-10.69
-4.91
6.03
12.64
13.44
3.74
-2.85
1.98
5.18
8.26
6.91
4.06
1.07
-1.96
-3.15
-6.01
-8.58
-9.54
-11.7
-9.4
-7.23
-2.2
4.26
7.4
12.56
17.68
13.26
5.93
6.05
8.66
6.44
3.99
3.15
-0.18
-5.51
-7.58
-9.18
-9
-10.87
-11.26
-9.51
-7.41
-1.9
0.77
2.84
4.78
7.1
8.78
11.67
12.17
12.64
8.3
5.02
0.51
-1.86
-3.32
-5.49
-6.67
-9.58
-12.07
-14.28
-10.12
-5.02
0.66
2.01
-0.25
2.17
6.16
8.44
7.47
4.66
8.2
4.62
-1.32
-1.61
-4.64
-9.56
-11.62
-13.2
-11.92
-9.41
-7.99
-7.16
-3.16
1.95
4.98
1.91
-2.01
2.76
6.94
9.61
7.55
4.64
0.24
-0.47
-4.49
-6.17
-9.31
-11.18
-11.78
-17.12
-15.48
-8.89
-5.6
-3.21
2
4.46
8.8
10.17
12.28
17.89
18.26
8.68
3.55
4.49
-0.49
-6.78
-13.12
-14.22
-11.48
-13.43
-10.61
-8.7
-15.87
-15.32
-7.22
-1.57
2.18
3.57
4.88
5.93
6.45
6.47
4.72
3.63
-0.71
-5.4
-7.26
-5.66
-7.13
-10.25
-10.75
-9.53
-4.72
-4.16
-1.42
6.13
10.6
7.59
8.72
10.23
13.19
13.25
10.19
7.42
1.48
-2
-2.2
-6.7
-13.2
-14.68
-13.76
-9.28
-8.21
-4.81
-3.28
0.09
2.24
3.53
6.22
10.45
10.29
8.98
8.05
9.46
8.81
4.81
-0.32
-2.68
-10.8
-15.03
-12.86
-11.14
-8.79
-4.99
-2.19
1.28
5.06
7.82
8.13
13.91
14.23
14.15
15.67
11.48
5.88
-1.15
-2.79
-3.89
-7.76
-7.37
-10.93
-12.69
-12.13
-9.06
-6.02
-3.27
1.67
2.04
5.44
9.48
10.54
9.2
12.13
9.01
9.25
5.06
-1
-7.01
-8.49
-9.26
-8.95
-6.37
-3.59
1.36
6.23
8.68
0.08
-2.91
-3.22
-2.21
5.68
12.18
14.64
10.66
3.05
-3.33
-5.66
-4.96
-5.15
-7.43
-12.37
-15.89
-15.48
-12.63
-10.04
-7.71
-3.59
-0.6
2.28
5
6.83
10.48
12.39
12.23
12.2
7.34
1.55
-1.53
-2.7
-3.83
-5.73
-7.73
-8.81
-5.92
-6.03
-7.43
-2.07
3.64
2.88
-2.45
3.03
2.72
0.09
4.48
7.6
4.1
-0.29
-3.27
-4.63
-6.13
-7.56
-8.99
-11.5
-13.84
-12.13
-10.43
-7.75
-5.83
-1.31
1.89
6.37
10.58
10.42
13.22
11.49
6.66
4.1
3.96
0.66
-4.19
-9.1
-11.2
-13.54
-13.87
-12.58
-11.29
-9.71
-7.38
-1.2
3.34
1.29
4.31
9.34
13.02
13.76
9.7
6.85
3.2
-1.59
-4.07
-5.33
1.77
3.81
-4.43
-5.89
-14.92
-18.21
-9.85
-2.91
6.96
6.52
2.96
1.01
5.24
8.52
9.07
8.27
6.33
4.02
0.82
-3.31
-6.61
-11.36
-14.75
-14.76
-11.82
-8.02
-10.09
-8.82
-4.37
0.56
5.97
6.26
8.71
10.35
10.38
6.92
7.07
7.2
4.23
-0.18
-6.55
-10.94
-10.55
-12.65
-12.09
-11.12
-7.38
-6.69
-2.56
3.18
7.3
8.98
9.9
12.46
12.61
12.74
9.04
8
4.63
-0.89
-6.75
-8.16
-7.53
-8.38
-7.72
-6.1
-4.68
-2.92
-2.18
-7.4
-3.48
9.01
12.42
12.66
16.31
14.65
12.18
13.75
13.98
5.43
-5.67
-19.23
-20.97
-17.9
-14.95
-11.63
-8.14
-3.58
2.74
8.72
14.52
19.11
16.74
8.6
-3.54
-0.85
6.98
7.27
6.56
1.85
-4
-8.84
-10.91
-11.67
-12.69
-14.22
-12.74
-11
-5.63
-1.76
4.2
7.29
8.99
11.64
15.87
17.22
13.33
7.46
3.98
-3.81
-7.49
-6.57
-6.31
-6.78
-8.26
-7.63
-8.57
-13.5
-12.01
-5.06
-0.58
3.51
8.19
8.69
9.22
10.97
10.63
11.01
10.13
6.45
1.92
-2.36
-4.02
-4.14
-3.84
-5.94
-7.62
-7.18
-5.75
-5.43
0.67
6.44
10.65
13.08
12.79
7.37
5.69
4.39
4.56
5.82
1.56
-5.33
-9.55
-13.04
-12.2
-14.51
-16.19
-15.31
-12.67
-8.1
-2.47
0.4
2.93
7.66
8.96
8.41
12.97
8.89
7.17
9.08
11.47
1.01
-8.53
-8.06
-6.58
-9.06
-13.73
-16.9
-12.72
-10.51
-8.27
-4.24
-1.92
1.63
5.13
5.04
8.51
10.67
11
9.35
6.31
2.63
0.82
-3.94
-5.75
-8.14
-11.78
-10.67
-9.2
-13.06
-11.85
-6.85
-4.13
-1.42
3.28
7.18
6.28
5.97
6.67
5.86
3.38
3.01
4.66
3.31
-1.65
-8.9
-16.21
-16.67
-14.84
-13.06
-11.43
-7.05
-2.83
0.42
3.14
3.92
5.33
5.47
8.15
8.39
7.18
4.94
5.35
5.15
-0.74
-3.62
-0.45
0.78
-9.28
-18.15
-16.42
-9.87
-6.09
-0.6
1.95
2.71
7.11
9.07
9.49
9.44
8.28
10.96
9.68
2.58
-4.16
-8.21
-9.01
-8.9
-9.91
-10.34
-6.66
-4.7
-5.49
-3.18
0.48
3.45
5.77
7.13
11.49
10.84
10.07
10.3
9.27
2.68
-6.54
-8.66
-8.78
-9.4
-10.22
-12.82
-14.52
-7.63
-5.98
-3.73
0.78
3.87
6.7
5.41
7.55
11.24
11.01
10.16
9.27
5.55
-0.58
-4.11
-5.37
-7.88
-8.31
-9.74
-9.32
-1.83
1.11
-1.05
-5.92
-4.42
2.36
6.28
5.09
0.94
-1.54
0.96
2.07
6.06
2.43
-4.12
-3.12
-6.85
-6.86
-7.01
-8.27
-15.03
-19.29
-15.51
-4.7
3.59
5.89
12.16
16.31
15.63
13.38
6.83
-8.59
-11.76
0.35
7.96
3.2
-19.37
-62.01
-62.94
-44.22
-17.81
6.54
19.95
20.46
17.21
19.17
18.7
19.41
21.74
22.95
20.66
13.82
10.32
15.56
16.85
10.56
-3.13
-2.55
-7.82
-9.7
-10.24
-17.45
-5.67
12.48
17.84
16.87
17.65
19.73
20.75
15.71
14.89
17.77
14.58
13.41
14.17
10.68
-0.52
-7.03
-18.68
-26.41
-21.53
-22.39
-25.18
-19.09
-16.41
-14.4
-11.04
-9.76
-4.02
-3.03
6.36
8.35
7.36
-3.28
-6.74
-14.69
-18.06
-14.46
-8.95
-9.83
-8.36
-3.73
-1.68
-18.53
-42.86
-41.34
-27.6
-18.54
-6.95
-0.08
1.7
3.24
14.13
32.68
29.38
15.12
-0.4
-12.53
-22.41
-39.08
-65.37
-67.84
-44.39
-15.93
-27.27
-9.06
23.38
35.02
16.27
26.7
44.09
42.73
26.2
8.65
-14.85
-40.52
-68.09
-62.69
-35.18
-23.06
-2.6
10.18
17.57
27.05
34.64
43.95
39.81
36.59
29
27.58
19.92
10.44
10.31
10.11
-6.37
-5.39
3.5
1.18
-3.52
-16.26
-44.14
-21.5
-7.93
-25.45
-51.34
-2.22
41.06
16.05
-32.51
-60.13
-59.31
-41.55
-8.04
22.22
41.11
38.81
29.96
34.18
23.45
3.61
13.83
12.88
0.25
-18.29
-45.88
-52.4
-55.9
-41.04
-24.62
8.1
39.67
58.32
-30.5
-70.93
-37.26
2.69
24.12
19.8
-1.94
25.12
4.62
4.97
6.13
-32.29
-3.96
70.63
30.47
-38.95
-64.54
-121.76
-123.05
-93.58
-72.33
-26.53
43.75
98.35
122.5
94.32
61.3
2.34
-6.49
24.44
40.39
4.53
-42.17
-75.23
-113.52
-61.01
-36.49
-11.38
27.75
39.47
26.67
45.96
65.99
85.26
57.55
42.33
48.5
34.59
16.55
-6.77
-63.6
-56.94
-5.16
-50.53
-129.51
-56.7
27.7
75.11
68.04
-4.06
-21.23
8.94
30.42
46.73
36.81
22.4
53.86
36.12
-13.76
-54.61
-109.12
-145.61
-100.52
-79.27
-114.03
-93.99
-44.53
2.25
40.03
91.48
105.03
99.28
108.73
91.43
39.41
-26.5
-51.52
-36.04
-1.43
43.62
63.77
40.43
5.7
8.84
22.52
26.17
31.42
15.31
17.41
-6.16
0.48
6.58
-3.34
-11.88
-25.99
-38.1
-31.2
-32.91
-38.63
-27.67
2.56
19.11
52.44
64.96
29.77
-4.09
-45.22
-50.09
-37.65
-75.77
-114.35
-98.66
-44.78
8.12
38.26
46.24
43.04
59.11
-1.74
-17.49
-37.46
-39.45
-68.6
-102
-124.57
-74.16
-13.08
64.28
112.37
110.59
63.25
11.57
-30.96
-13.5
24.41
71.46
41.86
28.13
54.7
27.34
-44.01
-118.71
-110.3
-46
11.83
45.85
47.69
40.34
37.42
31.18
-7.85
-30.74
-11.74
17.25
-40.62
-62.39
-3.81
-14.34
4.63
52.64
64.98
39.24
-3.53
-31.25
-41.92
-74.31
-102.84
-123.31
-57.57
-12.54
2.52
2.41
-39.7
-36.58
19.93
44.26
40.36
60.9
52.37
35.89
11
-5.44
-7.32
-29.86
-11.93
26.68
12.41
-39.69
-22.17
45.98
80.03
54.04
24.65
33.28
26.16
18.58
3.4
-18.86
-71.53
-88.45
-77.31
-51.59
-31.19
3.51
50.44
60.52
39.93
21.82
16.3
33.27
22.46
9.8
3.77
-11.61
-15.98
-2.29
-21.38
-105.07
-130.59
-95.16
-13.09
83.21
102.8
96.01
65.96
23.39
-33.73
-83.47
-114.04
-48.63
39.29
38.35
9.44
-14.43
-7.58
-15.46
-59.25
-16.64
25.07
36.63
25.41
56.96
34.79
16.23
-8.23
-4.6
-20.09
-49.76
-15.43
48.38
77.28
67.43
53.76
20.9
-32.92
-62.65
-46.97
4.65
11
-7.27
-18.61
-66.44
-72.87
-15.26
6.48
-11.6
-7.51
20.7
55.39
69.56
84.74
85.26
24.56
-57.68
-88.81
-109.01
-146.96
-137.2
-71.84
52.76
120.63
112.57
86.96
71.08
39.35
-56.17
-103.54
-73.55
-91.38
-90.58
-65.82
-39.18
-23.72
34.27
71.03
98.04
103.04
74.44
30.02
16.99
-19.11
-5.06
21.45
43.77
35.86
12.46
0.85
-44.41
-66.34
-53.83
-23.17
7.09
38.36
