-4.71
-0.44
1.93
2.68
3.93
7.93
9.04
11.35
10.99
9.08
8.88
7.94
5.94
-2.51
-14.75
-16.95
-15.18
-14.88
-11.81
-9.49
-6.61
-7.35
-3.5
2.62
6.42
8.22
11.69
13.8
11.76
12.78
11.84
10.86
5.06
3.44
2.17
0.29
-0.88
-3.37
-1.77
-0.96
1.36
7.5
13.4
19.87
22.11
24.66
30.19
31.63
19.66
7.19
5.44
4.3
2.16
-0.91
-5.58
-10.91
-18.07
-22.29
-24.84
-22.22
-18.39
-14.41
-11.54
-7.99
-7.03
-7.18
-1.42
1.71
1.69
1.28
0.84
-1.17
-1.69
-4.35
-8.36
-10.9
-13.24
-14.89
-15.04
-15.45
-14.9
-10.34
-6.12
-0.38
3.77
6.23
8.11
7.96
9.37
12.81
8.6
4.71
2.63
2.85
-0.01
-2.56
-5.95
-6.41
-8.24
-7.89
-9.32
-6.49
-3.71
-2.57
-5.56
-4.25
3.62
3.36
9.62
15.44
4.85
4.76
11.34
8.78
0.9
-1.1
-7.64
-11.4
-16.05
-18.9
-24.76
-25.56
-11.5
0.16
3.91
11.49
14.75
9.81
5.59
9.73
3.04
-11.95
-7.56
0.91
-11.72
-7.47
-2.19
6.82
14.65
0.95
-8.18
-6.17
-11.62
-14.48
0.18
12.34
14.78
13.73
12.46
1.74
2.49
15.64
15.58
7.7
9.75
6.26
-10.5
-15.76
-4.38
-0.96
-6.99
-15.12
-11.35
2.16
7.82
2.79
5.81
8.55
3.84
8.1
18.58
19.93
15.12
15.29
18.52
12.07
-4.75
-10.54
-1.33
-1.06
-7.72
-12.11
-12.81
-8.99
-6.58
-6.28
-5.61
-5.61
-6.91
-14.09
-4.52
8.21
16.63
19.71
16.07
11.79
5.01
0.67
0.71
-6.54
-13.92
-16.67
-26.91
-16.53
-25.82
-31.46
-16.58
-12.27
-19.33
-10.51
8.91
22.23
24.73
17.16
2.43
-13.91
-19.97
2.19
22.33
10.35
-8.09
-44.16
-47.75
-11.64
-0.2
16.18
15.96
18.92
24.76
-17.84
-26.5
10.26
4.77
-8.19
-17.96
-3.03
7.65
-6.74
13.31
4.3
-48.57
-57.36
-12.19
4.68
-8.77
-34.65
-39.06
-16.01
-10.77
17.15
49.64
44.7
22.7
-0.66
-19.93
-38.39
-59.58
-10.85
7.03
-10.18
-52.57
-71.27
-24.83
-16.86
-18.82
23.43
28.59
1.23
14.78
17.24
9.58
24.23
18.07
2.07
17.56
87.76
79.02
9.51
10.63
35.21
13.72
19.85
-27.51
-25.35
-1.98
-6.39
-18.01
-4.83
-30.55
-19.7
-11.64
3.21
2.32
-7.79
36.04
45.48
18.95
-13.13
-31.9
-24.84
8.34
40.74
14.22
-16.99
-31.94
-80.99
-127.13
-107.86
-8.14
23.57
46.52
72.54
43.67
49.46
40.79
52.05
18.93
9.2
13.22
-13.12
-75.46
-86.84
-94.43
-72.55
-62.38
-35.06
65.03
89.38
67.22
69.67
49.42
27.72
7.37
-18.26
-56.23
-93.58
-64.41
13.03
65.48
46.2
-49.96
-134.99
-144.47
-99.01
-20.61
24.73
2.25
-39.86
-5.81
48.05
64.64
49.95
48.27
43.25
12.46
-78.14
-123.35
-52.76
-15.42
-14.58
-70.82
-71.76
-4.93
20.97
59.93
97.13
80.17
75.39
49.2
23.83
-61.57
-152.18
-120.45
9.2
76.24
104.13
51.41
46.31
71.89
65.31
7.27
-56.66
-103.05
-140.42
-94.02
-8.02
-15.37
1.1
34.03
23.25
22.22
15.72
-99.74
-141.35
-69.57
21.1
43.2
56.97
7.9
-29.82
5.9
56.23
75.16
21.92
-47.49
20.86
67.02
33.81
11.77
-43.61
-92.4
-129.61
-112.67
-3.42
36.43
31.57
107.37
121.25
-17
-38.25
89.5
78.79
33.65
37.3
46.38
14.72
-31.76
-58.92
-56.34
-129.2
-281.34
-410.64
-302.19
-104.57
12.73
143.76
208.76
186.53
89.08
-64.65
-86.81
0.79
67.94
21.08
-88.41
-43.39
70.92
87.25
53.45
30.81
54.79
51.92
-7.49
-59.17
-14.14
99.47
125.79
29.01
-76.88
-89.12
-15.71
68.57
74.52
62.24
61.4
-51.84
-178.42
-133.58
-65.15
-8.54
70.71
125.97
137.37
110.48
44.69
-11.25
-65.67
-197.95
-266.33
-130.41
68.54
115.77
4.93
-100.03
-49.63
-44.59
-223.44
-227.93
34.5
212.46
147.39
73.91
77.68
104.92
89.81
51.97
78.28
100.91
64.48
52.09
13.04
-256.6
-363.58
-127.66
55.51
32.93
31.18
124.52
141.95
105.77
69.41
77.35
57.71
13.22
-84.03
-61.03
-6.56
68.54
32.53
23.52
35.15
27.28
-13.79
-105.49
-262.46
-232.13
-38.28
63.67
108.23
79.62
54.87
57.51
52.54
63.4
51.15
12.28
-97.78
-316.12
-490.6
-355.48
33.37
300.78
304.17
177.03
113.65
81.37
62.61
43.74
-37.62
-191.77
-214.39
-196.8
-82.27
115.91
177.28
33.37
-18.25
-20.24
-56.58
-25.72
94.71
164.54
110.1
-32.4
-187.8
-180.91
-29.96
78.68
106.14
38.29
-25.93
-47.33
-72.27
-1.87
33.43
-0.39
-7.07
-127.86
-98.26
159.98
173.61
115.43
40.85
-6.18
75.16
88.84
72.49
49.57
10.96
-97.79
-179.75
-128.89
3.76
97.29
47.83
-55.17
-217.65
-256.88
-35.08
171.27
186.56
140.02
62.7
-68.58
-178.17
-104.5
2.43
71.17
66.48
40.88
6.08
-77.13
-121.59
-204.12
-211.25
-191.13
-88.87
158.58
218.76
134.54
113.13
104.01
34.1
-198.33
-505.99
-331.58
124.87
313.87
295.85
236.34
171.05
112.87
61.84
31.84
-15.56
-39.79
-7.19
-46.22
-33.91
99.08
54.88
-58.61
-132.38
-99.54
-48.63
15.9
99.24
108.38
93.55
65.81
14.07
-0.7
3.81
-11.4
-102.07
-172.26
-166.59
-218.11
-400.91
-399.62
-66.75
204.11
272.45
203.68
195.63
178.25
133.88
92.53
-34.32
-169.76
-250.9
-390.02
-395.99
-149.63
143.5
274.59
278.76
162.38
139.64
134.22
91.21
0.33
-34.92
-215.14
-230.01
63.52
244.47
183.49
107.31
88.72
62
-31.89
-312.69
-533.26
-222.14
216.53
310.64
203.36
85.99
51.87
72.64
79.36
63.74
40.29
-36.17
-150.38
-94.85
-22.9
-97.79
-104.33
-5.39
-7.22
-7.99
6.54
-19.1
19.65
105.65
68.71
-10.61
-96.92
-298.23
-481.08
-323.52
-45.44
189.11
330.08
323.72
222.12
139.17
102.6
75.19
31.86
-15.56
-10.44
-16.15
-163.81
-181.35
16.6
145.46
136.26
71.78
-80.42
-333.18
-367.68
-172.05
-46.7
-158.77
-277.52
-191.34
94.51
348.97
346.75
243.25
167.91
119.22
70.69
15.88
-46.16
-49.95
-25.6
-4.76
-37.13
-145.91
-76.34
108.13
94.74
16.27
55.7
69.05
-91.5
-200.63
-205.64
-174.32
70.01
210.17
123.45
11.6
-103.68
-225.59
-340.2
-484.57
-192.97
242.07
402.75
316.6
193.96
101.6
45.02
28.29
-81.62
-262.39
-157.47
73.56
146.16
98.51
-32.32
-48.52
67.46
127.33
54.5
46.09
23.5
60.1
82.93
24.32
-23.65
-56.87
-69.77
-87.53
-69.62
-89.85
-41.64
45.9
-152.47
-504.76
-495.49
-169.88
190.17
312.37
301.19
237.93
163.3
106.87
82.87
70.97
51.21
48.48
39.86
-67.95
-224.63
-264.15
-113.82
79.59
109.58
-45.86
-103.4
35.25
88.97
21.75
-45.7
-58.96
-112.48
-168.21
-174.99
-149.41
-18.47
78.44
134.93
143.23
140.1
82.16
52.4
-47.34
-141.61
33.84
177.84
124.1
17.98
-48.3
-55.11
-126.3
-361.45
-203.6
196
302.52
161.07
90.91
72.29
85.81
54.05
-110.39
-262.84
-171.96
37.97
75.84
15.46
132.14
136.85
24.82
-67.26
-96.82
-86.11
-45.3
-36.42
-123.81
-193.33
-184.15
-96.99
76.97
145.48
68.01
29
-49.34
9.5
53.57
-53.92
-88.42
-3.03
-144.62
-218.4
63.01
235.16
180.45
76.29
-4.78
17.77
130.5
120.11
-7.05
-188.6
-284.13
-307.82
-86.36
186.81
262.45
161.67
98.22
97.11
17.83
-96.38
-128.71
-22.19
30.66
15.5
-13.45
0.99
26.67
-5.07
-126.01
-198.08
-89.15
21.2
115.33
142.83
106.05
39.56
-69.55
-294.16
-407.25
-208.92
105.04
283.18
277.29
162.87
87.62
42.83
-56.32
-168.55
-143.01
-71.69
-32.02
-27.85
95.22
91.12
-149.21
-221.14
53.77
180.34
69.34
27.21
51.19
-15.52
-129.3
-322.79
-317.82
15.41
334.89
356.53
208.34
131.73
101.1
88.42
73.61
35.39
-63.71
-179.01
-203.34
-31.09
107.71
95.62
10.65
-28.47
-19.46
-28.68
-47.56
-44.12
-61.2
-96.79
-132.5
-250.65
-357.36
-278.01
14.87
154.07
90.96
-45.86
-149.57
-76.28
137.34
231.99
280.98
220.2
120.8
55.97
22.09
2.73
-12.32
1.51
13.36
14.53
-32.99
-36.41
2.61
27.42
-44.42
-107.15
-47.73
4.48
-0.95
-62.99
-45.83
12.96
27.58
-59.51
-74.26
-108.03
-159.49
-74.41
59.61
-15.65
-183.41
-166.14
130.59
244.47
84.56
-26.76
-30.51
5.41
15.93
19.24
-4.81
-10.7
11.32
49.34
56.96
-19.99
-228.19
-318.15
-71.72
141.53
151.96
99.17
37.16
-22.57
-56.64
-75.78
-105
-9.62
84.96
68.41
21.19
-52.84
-112.78
-14.33
48.66
43.64
-85.75
-204.74
-133.3
47.67
98.65
88.11
134.58
123.61
116.04
109.23
26.27
-169.37
-341.77
-123.95
145.41
115.92
37.39
11.62
21.92
-10.67
-79.43
-58.06
-45.17
24.48
120.09
115.92
70.06
42.01
7.96
-73.72
-129.89
-121.53
-101.66
-37.6
0.15
-53.12
-50.44
-58.38
-48.32
-5.13
-89.71
-195.99
-212.89
-124.35
106.16
242.36
252.8
179.61
79.79
41.29
35.06
36.06
-11.16
-32.94
-22.79
-110.96
-197.84
-72.44
70.57
78.03
58.48
38.76
-4.08
-92.42
-182.98
-358.04
-232.17
79.69
199.35
142.96
36.63
-52.4
-203.84
-234.63
33.24
257.42
175.43
100.94
53.92
2.25
-33.48
-38.67
-27.12
-24.91
3.56
53.4
98.76
81.12
45.72
28.51
17.19
2.33
-28.63
-52.42
-70.54
-104.26
-187.3
-183.01
-10.69
75.16
-12.95
-101.77
-104.44
-53.31
87.57
82.11
-11.66
1.59
62.37
29
43.57
90.85
94.37
45.16
13.18
-4.89
8.97
2.19
0.02
-26.74
-40.59
-89.78
-183.76
-251.29
-73.28
87.98
135.37
123.53
51.97
-36.47
-73.23
-24.03
21.72
30.67
10.41
-31.65
-39.78
-17.43
-30.3
-81.34
-118.8
-104.59
-54.44
-97.37
-149.33
-66.48
116.43
178.79
144.92
43.99
-73.26
-22.88
46.93
63.58
56.25
11.74
-61.83
-105.05
-90.98
-20.03
81.46
91.56
36.56
-3.08
-1.21
-10.54
17.72
17.64
-119.67
-178.94
4.2
121.75
84.78
19.92
-8.65
-39.69
-56.77
5.95
76.79
8.17
-80.34
-116.33
-120.41
-180.34
-183.86
-77.24
43.2
108.62
126.51
91.1
83.96
81.11
72.11
32.3
8.23
22.17
-8.55
-49.82
-88.7
-127.8
-119.93
-51.22
53.21
55.71
-2.4
1.8
8.75
-0.07
-18.69
-9.05
-47.23
-105.39
-66.61
-22.07
-72.3
-100.85
-23.77
62.88
86.88
80.78
44.69
-25.88
-89.54
-122.42
-93.67
-41.6
-94.55
-132.86
-82.29
41.78
127.75
85.66
60.32
58.49
26.48
22.79
66.47
-2.43
-65.1
-30.19
25.93
16.4
-13.68
-14.4
11.3
3.11
-37.41
-140.87
-144.38
-17.59
106.01
82.82
26.81
74.06
62.03
0.73
-19.28
29.85
39.39
-64.52
-139.89
-127.68
-86.31
-67.71
-30.9
50.48
50.57
-35.68
-39.06
4.02
19.37
46.65
48.31
35.56
-33.19
-49.95
32.05
13.7
-60.64
-68.89
-51.97
-81.67
-35.83
-1.21
16.94
63.08
10.7
-108.4
-137.75
-23.27
54.43
50.67
52
57.83
49.51
42.88
27.72
9.49
-13.55
-28.85
-42.42
-65.53
-72.39
-24.23
15.03
-7.73
-24.88
-7.13
-22.02
-60.09
-57.85
-13.59
8.66
0.25
-4.94
-40.35
-63.02
-61.25
-27.96
21.36
59.62
72.44
58.72
17.96
-36.76
-80.7
-80.02
-76.61
-31.16
-1.68
48.02
78.96
56.27
40.52
24.41
-23.13
-84.93
-84.76
-108.84
-78.17
9.6
67.84
90.17
64.04
8.05
-14.72
-38.7
-41.69
-36.37
-33.33
-33.22
-117.69
-78.3
39.08
-5.15
-57.29
38.59
102.9
69.25
23
15.1
20.73
22.96
5.56
-6.12
-42.56
-49.21
-73.89
-108.44
-94.53
-28.31
52.26
100.41
90.04
39.81
16.57
31.09
4.03
-29.08
-61.03
-90.15
-56.77
-3.03
-20.68
-56.59
-72.86
-51.76
11.11
64.28
56.25
10.94
-61.69
-64.5
-23.99
-2.88
-1.28
13.32
-3.14
-11.28
-8.61
-10.31
1.81
32.65
26.74
-47.3
-59.62
-6.39
37.36
41.53
51.82
52.26
36.36
10.87
-10.09
-20.48
-27.78
-55.78
-116.87
-94.21
-47.95
-74.62
-31.05
52.7
28.5
-17.21
-38.67
-25.34
-44.91
-63.61
-10.94
22.07
53.01
50.17
-22.18
-83.29
-45.23
41.72
82.22
16.08
-6.21
-14.09
-16.86
-4.32
-2.64
-57.95
-112.89
-40.91
51.63
50.04
50.55
30.63
25.17
33.58
44.36
29.01
1.33
-28.49
-41.4
-6.11
15.21
20.56
4.95
-16.05
-64.76
-88.51
-49.5
-9.71
1.04
-15.9
-51.18
-38.24
10.72
22.43
28.15
0.01
-61.11
-68.24
-24.66
-61.36
-84.42
35.86
88.46
74.19
46.31
-1.9
-69.64
-91.65
-42.39
5.03
8.43
-65.2
-131.82
-40.94
94.5
120.16
56.13
26.71
32.54
18.11
-18.8
-14.85
-22.14
-52.49
-6.78
48.58
35.2
31.63
33.83
2.72
2.54
4.2
-43.09
-78.08
-32.15
-17.88
-12.71
-16.35
-26.58
-36.78
-64.3
-22.37
7.53
22.21
18.68
61.58
55.9
-4.64
-82.66
-81.25
-50.12
-52.35
-70.06
-48.3
-6.8
62.44
108.02
60.36
-8.09
-40.86
-10.96
5.35
-31.94
-71.55
-56.92
-6.32
47.05
40.66
-38.46
-58.52
-38.04
-17.47
43.75
92.55
70.81
2.12
-7.22
-3.36
-8.92
-0.58
-13.37
-31.13
-11.29
-4.39
-32.7
-31.9
-19.53
-65.89
-106.96
-56.46
44.85
82.31
73.3
20.89
7.24
-2.75
-27.81
-51.57
-52.76
-2.52
22.87
28.37
73.97
123.9
90.52
8.1
-45.75
-70.98
-110.98
-96.29
-49.4
-27.25
-4.51
-19.52
-43
-115.07
-107.47
-19.23
29.98
32.18
-43.52
-74.02
-40.79
86.15
124.87
81.5
47.26
35.25
26.7
24.47
17.65
-0.19
-79.6
-175.63
-212.09
-142.6
24.93
104.53
70.62
51.85
65.45
48.58
28.69
14.96
-0.95
-25.19
-21.24
3.87
-13.94
-13.45
-23.37
-40.33
-18.83
-4.56
13.48
35.42
-12.25
-65.01
-44.05
22.31
70.12
41.75
-10.94
-5.02
-5.93
-19.15
-9.23
0.12
-12.78
-70.97
-41.07
3.46
5.1
5.18
-26.58
-112.61
-172.7
-177.55
-98.75
23.76
112.52
169.86
135.49
63.83
40.74
42.73
41.25
41.55
-2.91
-75.93
-167.28
-202.69
-86.43
96.88
131.77
82.17
28.87
-22.88
-39.44
-27.06
-8.64
-8.86
14.72
69.5
69.37
26.06
-11.99
-12.78
9.88
26.67
15.62
-16.97
-45.01
-59.25
-22.16
2.38
-16.95
-29.01
-50.99
-71.14
-33.16
-2.95
-30.65
-48.48
-1.47
32.07
57.64
93.93
81.46
36.04
-33.86
-90.17
-68.98
-40.61
-80.05
-109.3
-94.96
-50.58
54.38
95.61
78.71
42.39
46.01
97.54
86.92
40.24
10.42
-32.07
-40.92
-23.89
-45.81
-88.26
-41.8
40.98
44.04
2.36
-18.59
-36.35
-50.78
-32.63
-34.44
-6.9
23.31
42.11
51.42
39.18
15.35
13.29
17.36
6.95
-17.08
-62.55
-101.47
-130.09
-115.79
-78.39
-25.67
28.49
72.39
65.07
-29.31
-35.72
26.8
47.49
73.39
67.42
52.37
46.53
27.35
-6.52
-29.4
-28.93
-37.08
-17.7
2.04
-12
-44.72
-32.61
-17.68
0.17
21.82
23.07
-26
-93.86
-78.9
-40.51
-80.23
-43.31
70.64
15.28
-18.63
-11.14
-13.96
-22.21
-13.91
43.46
47.89
8.18
-56.49
-85.79
-77.62
0.36
60.55
77.29
78.67
73.26
66.27
40.85
28.78
35.94
45.92
23.94
-17.87
-59.34
-87.04
-70.71
-60.1
-54.15
13.86
45.88
9.62
-33.52
-16.9
36.45
42.67
21.41
26.3
43.3
28.18
10.07
-11.89
-30.62
-41.29
-47.03
-12.67
-5.22
-6.17
-20.14
-34.55
-3.78
29.56
34.93
21.16
10.09
5.42
5.45
-27.99
-29.33
-26.47
-103.13
-142.51
-79.34
-14.72
45.69
101.84
98.16
45.77
-5.34
-68.69
-93.29
-47.97
-44.47
5.12
45.43
23.02
-2.3
-26.71
-64.06
-96.56
-40.9
-0.05
-9.68
-20.54
18.11
56.44
44.23
-24.68
-66.6
-78.8
-53.1
5.59
25.98
53.22
76.28
48.6
32.02
30.33
31.59
50.04
53.36
37.68
32.88
16.82
-10.61
-31.15
-36.58
-15.31
-114.32
-240.07
-206.88
-68.84
83.54
88.42
58.99
35.34
48.13
79.01
97.81
99.78
91.1
52.85
-51.59
-147.35
-103.04
-14.08
-20.77
-38.24
-71.27
-54.4
-5.94
85.87
97.53
37.1
-11.29
-29.09
-7.41
17.08
22.28
23.35
6.76
-10.24
-12.43
-4.21
-9.95
-8.17
-9.31
-7.77
1.61
24.34
1.11
-14.42
-13.27
37.8
26.94
-2.24
-19.64
-51.03
-51.55
-24.29
23.86
27.1
-16.76
-66.54
-77.66
-28.43
-17.94
-40.26
-55.28
-4.56
68.88
57.66
15.09
12.59
49.12
45.8
3.99
-37.97
-93.13
-82.87
-13.93
7.82
22.8
-4.95
-38.48
-21.9
14.07
58.94
70.95
44.36
27.72
0.72
17.45
32.94
-5.39
-72.03
-110.22
-39.06
2.33
39.47
60.79
50.78
13.64
13.34
34.27
22.35
10.18
-16.18
-36.92
-42.79
-0.87
17.44
30.46
36.13
4.77
-13.49
-14.27
-27.08
-88.9
-112.01
-75.81
-75.22
-21.81
19.89
46.97
71.66
65.36
50.31
59.28
66.01
26.64
-38.5
-64.94
-18.91
34.57
6.73
-11.39
28.26
22.05
12.25
-20.25
-71.47
-87.38
-32.92
33.17
56.1
53.67
32.74
-27.5
-56.33
-16.5
-6.37
-67.11
-98.25
-26.72
16.22
29.83
28.53
-2.99
-15.47
-10.65
13.65
15.82
8.47
-10.85
-1.42
39.41
17.29
-5.44
19.59
36.57
49.32
18.16
-33.54
-38.7
-39.75
-62.11
-69.1
-98.53
-94.67
-16.96
71.24
99.42
85.69
63.74
30.96
-18.52
-94.6
-77.26
43.45
95.84
46.87
-38.1
-90.36
-99.59
-66.84
3.03
33.03
68.15
75.6
34.48
-14
-38.61
-8.34
32.05
33.03
0.86
14.34
21.54
-4.35
-38.86
-59.79
-35.69
-53.03
-46.62
0.45
32.47
39.12
13.64
-0.02
48.28
68.33
55.8
33.4
30.37
30.6
25.87
-26.1
-93.39
-102.63
-94.3
-85.11
-21.27
85.87
88.47
17.04
-19.51
-37.1
-44.39
-24.63
-1.22
17.28
14.44
-7.12
31.92
65.13
35.73
19.09
-0.04
-19.51
-16.73
14.88
18.46
8.77
11.28
21.67
-11.94
-68.93
-104.27
-72.2
-31.18
-37.08
-13.33
-26
-11.46
-24.81
-11.04
46.25
58.12
38.15
4.58
-29.91
-48.56
-54.93
-47.9
-80.71
-81.11
-19.81
25.37
70.41
99.33
107.19
76.62
30
19.73
4.9
-20.15
-21.97
43.02
46.16
-16.1
-33.1
-11.42
5.66
7.69
-1.89
-7.86
-35
-27.81
6.52
-15
-21.95
-46.09
-113.83
-85.99
-23.64
31.79
54.83
32.47
10.84
26.38
36.38
12.04
-39.84
-87.03
-146.95
-162.33
-56.21
79
138.54
130.95
96.34
83.71
51.68
-8.06
-14.9
17.54
26.54
49.75
31.8
1.8
-17.99
-60.11
-114.5
-104.08
-43.86
-45.86
-38.33
11.07
37.67
26.04
26.61
34
50.75
59.34
28.31
-10.88
-13.58
-10.82
-33.04
-77.86
-102.63
-73.17
-15.95
42.19
56.49
42.37
46.39
25.13
16.59
29.31
12.73
-1.48
9.63
21.44
34.41
23.63
-19.43
-37.08
38.49
79.64
32.1
-15.39
-63.48
-104.94
-127.58
-70.87
-1.96
21.03
49.92
45.99
42.16
20.75
-38.08
-70.37
-68.66
-8.34
25.82
-55.2
-113.71
-64.15
48.28
69.1
50.17
9.69
-0.74
15.96
25.61
23.96
8.04
-29.12
-69.06
-50.21
15.7
77.75
84.98
38.76
4.84
-21.55
-2.95
40.96
44.51
15.05
5.99
23.65
3.02
-21.96
-7.2
15.67
-9.96
-61.06
-66.71
6.77
73.07
61.49
30.91
15.12
12.83
-1.57
-16.08
-42.07
-61.78
-45.73
-4.75
-35.34
-31.82
37.67
64.69
44.39
44.07
24.03
-5.49
-36.43
-32.74
-38.96
-96.18
-72.91
34.21
89.55
67.2
-0.21
-32.81
23.33
67.68
18.9
-50.7
-70.46
-53.08
-33.94
-27.02
-4.98
24.81
27.31
28.55
22.18
-12.5
-16.59
-2.69
-8.47
-41.64
-21.42
19.49
40.72
25.45
32.62
54.72
48.42
13.14
-28.51
-39.04
-16.24
-66.94
-102.9
-50.54
29.76
45.57
-35.82
-77.01
-51.37
23.87
71.41
65.94
62.95
49.13
28.74
33.92
44.7
55.47
20.16
-19.39
-25.76
-20.85
-34.47
-31.83
-52.1
-96.37
-142.86
-136.93
-52.35
28.12
50.7
36.38
26.88
33.61
40.08
29.3
41.15
31.14
33.32
37.89
18.75
-2.05
-32.62
-70.65
-56.21
-7.11
-15.42
41.01
99.54
74.82
26.5
0.5
12.78
10.88
5.29
-29.96
-44.48
-68.07
-105.65
-134.09
-95.46
26.96
98.51
72.78
40.79
59.89
68.7
43.67
19.22
2.68
-3.57
4.29
28.86
63.69
62.75
11.08
-61.55
-102.48
-74.48
-52.52
-21.19
-32.66
-57.02
-54.72
-22.29
-4.9
-42.53
-27.17
22.14
27.61
10.19
-23.14
-32.03
12.06
77.39
104.25
58.43
5.88
-65.24
-102.82
-69.57
4.5
66.55
70.47
44.5
24.26
2.47
-12.14
6.21
-30.64
-58.22
-32.44
-4.37
9.97
30.79
66.94
54.4
22.9
-3.31
-8.44
18.61
1.54
-49.33
-72.83
-68.06
-24.55
-5.78
23.77
38.22
41.8
42.47
4.99
-27.29
37.64
66.76
-1.32
-30.25
-8.89
-6.46
-18.78
-43.26
-57.13
-66.61
-57.01
-23.84
10.73
30.28
-8.78
3.68
17.38
32.05
35.42
25.1
46.51
40.27
-8.77
-96.01
-117.8
-32.91
43.75
71.12
35.91
11.49
-20.54
-68.32
-38.27
0.66
12.5
11.5
-4.47
-4.04
15.65
7.26
-4.14
24.92
51.49
20.2
-35.09
-77.47
-79.23
-44.44
40.73
76.11
23.72
24.19
62.15
64.08
41.17
20.03
-24.16
-35.97
-33.01
-35.71
-12.4
4.58
16.03
43.43
6.42
-44.57
-34.34
-1.26
50.77
57.56
20.45
4.28
-9.97
-46.17
-82.42
-90.83
-96.44
-18.81
75.75
87.94
84.75
64.32
45.06
44.27
17.33
-25.55
-46.54
-59.36
-52.58
-16.1
12.3
-17.75
-39.38
-79.53
-128.23
-120
-0.67
125.8
120.38
35.69
-4.21
34.75
43.65
7.4
-6.58
43.87
76.31
36.28
-20.54
-26.27
-4.4
-8.62
-21.5
-55.95
-48.11
-58.02
-38.52
4.77
38.69
68.68
61.3
33.96
26.75
7.73
-21.42
-10.14
23.6
-0.79
-43.86
-117.02
-129.86
-116.95
-92.18
2.41
66.62
73.99
89.77
91.44
80.73
66.59
56.62
51.31
10.73
-30.84
-19.76
7.33
-52.62
-57.26
4.65
12.07
17.2
14.29
-18.44
-64.61
-113.72
-136.41
-115
-58.61
-10.11
3.23
41.7
89.73
120.5
89.56
49.42
24.94
15.62
18.95
37.69
33.73
15.21
-5
-7.19
-23.32
-36.37
-1.61
8.41
-7.26
3.43
20.89
23.05
12.59
-14.57
7.06
50.45
13.69
-44.47
-26.12
-46.03
-121.49
-114.58
-59.42
-16.95
2.3
39.9
84.52
92.19
52.34
-1.45
5.31
0.61
-33.31
-34.58
-3.8
-8.79
-29.05
-52.22
4.12
53.71
17.95
0.55
10.82
3.63
4.61
16.92
19.07
-6.45
-91.13
-150.35
-101.56
-2.39
56.03
59.15
67.64
72.7
72.64
52.3
13.94
-12.27
0.04
-46.9
-70.75
-17.17
17.16
18.67
25.97
13.39
15.71
6.82
46.8
61.49
31.68
1.8
-3.9
2.03
-7.73
-49.01
-88.72
-68.3
-8.04
39.05
75.93
76.64
50.83
28.82
-7.42
-32.57
-34.55
-8.45
-5.34
-27.63
-40.21
-5.78
22.56
20.54
-8.27
-17.97
-5.88
-2.67
-40.72
-104.06
-171.28
-145.75
-7.25
67.75
96.26
56.72
24.52
52.82
46.69
6.32
-13.9
-9.44
-2.81
30.87
54.66
60.82
27.73
-21.52
-30.91
14.28
11.97
-1.99
-17.38
-26.23
-29.34
9.48
15.22
12.65
22.6
12.97
-36.15
-46.87
-40.27
-54.34
-46.97
-27.39
-3.25
-27.45
-77.12
-81.36
-52.59
7.72
8.37
11.7
-16.54
-3.12
66.7
81.83
85.2
79.76
67.31
26.6
1.08
9.33
20.66
30.54
14.01
-0.8
-8.09
-15.41
-65.22
-29.46
53.05
65.8
38.63
7.91
3.15
-3.24
-8.8
-8.31
-8.43
-37.23
-62.53
-76.46
-41.86
11.68
33.58
30.92
23.67
-4.01
6.81
6.63
-8.51
5.2
3.6
-9.85
-46.86
-49.73
-44.12
-86.09
-100.33
-15.37
38.03
38.16
98.6
141.81
93.27
48.25
36.95
29.26
7.62
-18.74
-24.55
-26.18
-40.55
-41.12
-62.06
-146.94
-177.66
-120.8
88.28
156.06
77.47
37.53
33.28
1.07
24.03
73.77
58.79
34.67
42.1
40.45
18.97
-22.13
-43.87
-68.75
-82.11
-27.46
38.02
75.62
60.65
38.38
34.19
45.13
49.08
13.88
-33.56
-46.99
-36.75
-23.33
-14.76
-40.92
-66.25
-41.61
-16.97
-53.3
-78.18
-72.64
-89.37
-56.5
-0.69
100.71
97.76
33.48
-7.56
-25.83
-7.75
33.65
76.87
78.61
49.21
15.72
4.15
15.87
14.27
5.88
-5.69
-0.1
-10.35
-14.14
-31.15
-60.61
-37.67
37.41
66.39
32.13
2.68
-6.59
-11.92
-11.88
20.82
26.13
-20.59
-45.8
-75.67
-87.3
-71.34
5.82
79.3
63.2
20.07
-10.57
-11.46
6.65
18.69
-0.81
-2.26
19.29
38.34
32.97
27.07
19.19
29.43
21.37
31.56
34.68
25.13
10.99
-3.15
-41.67
-99.51
-106.29
-85.85
-22.87
16.47
16.99
24.16
34.14
31.73
32.51
39.33
24.17
15.19
-79.11
-89.53
-27.1
45.69
45.57
24.81
-3.9
-4.55
9.2
16.65
11.68
-7.57
19.03
62.42
50.33
17.99
1.44
16.58
40.03
30.66
19.82
18.94
8.91
-4.77
-34
-66.78
-91.17
-94.47
-116.12
-101.13
-3.26
75.62
73.33
36.79
-20.09
-65.7
-78.19
-42.48
9.76
8.21
3.47
5.41
52.28
98.07
67.23
10.66
-9.52
-8.23
17
33.56
25.26
-2.46
-1.93
3.94
6.63
31.8
40.15
33.44
44.42
46.16
16.77
-18.19
-51.32
-37.18
-20.45
-0.47
3.73
-41.45
-75.42
-62.35
-62.65
-44.51
-37.3
-26.42
-15.81
-1.37
29.37
20.08
12.92
39.15
56.52
66.06
51.12
8.71
-24.51
-3.33
22.26
-19.82
-45.62
-61.87
-111.25
-111.06
-31.76
24.34
-1.62
-16.13
28.76
60.75
53.03
44.19
-2.9
-27.87
-59.07
-60.89
-33.71
11.6
68.33
108.62
121.26
21.81
-49.09
-11.92
18.95
-0.7
-23.49
-3.28
28.91
63.33
69.38
-0.57
-44.06
-56.92
-46.21
-20.66
-11.82
-1.99
33.12
52.63
37.44
-16.09
-37.3
-28.92
-29.27
13.33
29.46
-1.62
-18.31
-4.72
-13.54
-28.15
-29.8
-19.88
-6.42
-10.19
-8.05
32.31
45.27
42.41
15.77
-17.94
-29.21
-9.73
23.82
-6.82
-52.79
-42.15
3.59
73.01
11.02
-124.85
-173.27
-41.87
69.64
113.16
90.42
63.86
8.58
-4.5
19.34
26.91
20.33
9.1
12.53
15.3
6.44
-2.33
-28.64
-30
2.11
-8.96
-39.82
-97.39
-160.43
-114.87
7.86
105.28
128.9
78.49
53.95
34.99
-13.27
-40.75
-19.31
-17.09
-14.08
2.95
13.15
20.34
10.91
7.16
4.29
-1.32
-15
-3.15
37.47
17.23
-26.57
-41.21
-19.37
34.46
58.45
9.06
-54.28
-55.14
9.95
11.18
9.96
24.86
40
9.43
-48.45
-43.56
-4.71
20.33
33.61
-10.72
-80.84
-45.68
24.33
56.44
41.86
17.11
22.07
25.87
41.24
28.95
-41.65
-46.55
-3.26
17.44
35.17
46.4
40.96
30.3
43.53
29.78
-31.88
-62.28
-36.68
-23.7
-29.8
-41.9
-28.95
-23.63
-38.18
-50.73
-52.46
-91.51
-145.81
-71.38
9.17
31.27
-13.59
-34.09
10
70.34
120.64
82.28
32.6
40.13
32.43
48.97
41.31
8.63
10.69
32.33
16.92
-6.19
7.01
22.14
-20.09
-45.78
-9.6
23.45
30.87
26.28
10.64
-5.43
-11.66
-18.89
13.03
34.4
27
-0.53
-27.58
-36.69
-44.72
-35.45
-1.65
32.28
41.83
40.37
41.33
33.5
14.85
-6.42
-4.63
8.82
17.03
1.96
-51.62
-76.79
-81.67
-89.48
-55.38
-8.29
7.79
10.86
19.45
35.11
35.88
30.94
37.68
9.4
-25.3
-58.32
-59.12
-0.18
49.84
67.63
39.84
14.33
19.46
12.16
-21.45
-67.7
-69.41
-24.68
9.4
19.66
0.69
-20.83
-26.34
-11.93
24.54
46.84
36.25
-2.01
-42.68
-47.1
10.79
57.66
59.72
47.27
42.16
41.77
23.52
1.52
-18.22
-24.03
-2.34
5.62
-25.29
-51.99
-61.9
-46.52
-67.2
-30.4
25.18
80.75
85.67
37.69
37.28
44.64
51.71
26.17
-12.62
-39.62
-45.32
-46.03
-55.09
-57.82
-80.91
-82.59
3.62
83.34
76.08
81.09
42.13
4.94
21.1
21.6
-1.7
-45.7
-110.48
-132.38
-45.59
26.16
43.25
8.45
-4.54
-3.27
42.49
50.08
12.49
-11.45
13.25
33.42
23.58
-13.8
-21.8
-2.18
-30.28
-59.99
-18.08
46.15
54.8
60.49
44.31
24.78
-11.32
-15.93
2.74
6.08
6.41
0.15
3.09
2.86
19.84
42.72
18.33
-66.1
-90.55
-100.91
-111.72
-88.07
-21.63
12.37
8.22
5.41
8.43
14.96
51.76
50.77
53.86
58.03
16.22
-2.41
17.34
41.5
39.26
-0.6
-24.23
-28.78
-45.87
-51.02
-34.15
-38.21
4.75
68.35
17.02
-10.78
27.72
35.79
17.87
8.83
3.72
-25.99
14.52
97.86
96.4
25.62
-38
-44.66
-43.69
-67.7
-109.58
-103.71
-39.83
14.64
9.75
10.46
53.21
75.9
55.22
53.56
36.73
10.92
20.04
38.22
21.64
11.42
-16.49
4.14
40.59
17.64
-19.48
-46.45
-33.56
-14.06
-33.78
-60.61
-55.97
-38.23
-17.87
30.69
83.08
73.5
-6.95
-14.26
28.78
72.4
52.39
-0.62
-53.25
-118.18
-156.76
-112.2
-17.9
19.31
48.31
63.47
71.95
46.6
46.03
46.13
5.93
-9.88
-12.44
-13.06
-30.37
-91.84
-111.72
-79.88
14.38
71.46
69.34
20.59
-12.3
21.61
17.55
-8.97
-25.82
-31.9
-10.42
-11.13
27.71
45.11
34.48
72.61
58.17
-3.58
1.53
64.43
79.87
43.41
-24.22
-62.47
-32.17
6.61
5.52
-1.55
-32.07
-41.54
11.09
64.09
39.76
-9.17
-31.82
-44.33
-33.46
-24.07
-28.35
-28.25
-16.13
4.66
3.52
-5.22
25.96
20.04
-32.74
-44.5
-80.39
-92.3
-53.29
-15.11
-0.48
26.92
37.72
32.06
52
54.4
24.18
54.37
54.93
34.34
13.86
4.43
-26.65
-51.53
-100.25
-58.82
50.08
66.18
54.14
91.59
92.37
42.52
-9.47
-36.85
-47.94
-35.37
-2.9
-13.91
-17.2
7.5
-10.14
-83.88
-73.25
18.58
46.61
37.16
16.96
-11.01
-27.56
-14.69
-17.88
-34.27
-32.86
-23.55
-32.56
-54.54
-108.28
-108.79
-19.72
83.02
74.18
0.37
-64.65
-82.68
-36.29
32.6
58.49
56.7
94.68
155.41
138.95
82.71
58.26
56.03
42.03
35.57
35.83
23.47
-1.71
-7.59
-21.12
-26.44
-74.18
-91.92
-44.85
-5.99
8.91
3.17
23.01
12.72
-16.25
-44.91
-76.05
-22.01
-7.65
-44.37
-87.85
-64.84
17.32
99.51
98.07
41.9
-1.62
-33.66
-81.69
-95.03
-89.12
-108.16
-95.88
-5.82
74.89
101.86
32.68
24.21
85.85
65.16
44.66
47.96
17.92
35.99
34.61
24.06
-11.36
-105.61
-156.74
-112.28
-3.34
88.87
78.64
33.63
-7.88
-54.49
-70.52
-8.25
28.37
-12.04
-21.02
40.45
53.49
29.46
24.98
6.86
-3.24
2.9
11.07
29.4
25.02
18.23
14.29
-21.72
-39.59
-23.98
-6.91
-3.11
-2.82
22.34
-0.09
-48.12
-51.23
2.94
52.97
70.04
43.05
-39.09
-23.34
8.98
18.97
38.04
21.43
-46.05
-120.75
-108.18
-1.68
60.21
18.95
20.57
42.91
42.84
50
49.03
40.25
-9.2
-88.52
-81.87
-37.29
-6.51
0.47
21.08
35.38
8.69
1.85
31.97
16.6
10.61
17.83
4.02
-12.33
-33.35
-16.94
18.74
37.66
44.41
-19.92
-68.95
-46.45
-14.12
-18.68
-18.17
-27.52
-2.98
35.15
68.55
79.13
33.13
-6.64
-4.58
-9.54
-29.93
-9
16.77
27.76
-7.11
-58.79
-47.39
34.06
55.22
11.52
-57.55
-66.45
-42.65
-3.57
59.43
56.9
42.58
38.59
12.45
-3.25
-4.86
16.34
22.88
12.65
-3.58
-10.95
-28.56
-69.86
-55.5
-9.95
4.35
-45.74
-76.14
-74.93
-73.57
-42.74
17.24
73.76
101.34
69.32
26.07
5.91
29.99
51.2
-21.61
-103.78
-58.12
38.08
44.94
8.09
-17.48
-8.19
74.21
117.85
96.86
58.84
32.02
4.42
-2.05
4.89
1.27
-13.5
-48.61
-55.35
-19.46
2.96
26.64
21.32
-15.12
-59.92
-50.46
-1.24
15.02
-0.1
-3.81
11.44
7.22
-17.49
-58.36
-89.21
-94.71
-75.69
-66.67
-11.46
49
84.02
102.95
84.68
42.86
11.82
-8.37
-18.15
22.04
8.44
-28.15
-46.54
-34.86
-25.53
1.82
55.85
56.02
3.01
-38.41
-24.87
16.17
42.86
63.89
47.3
60.46
76.64
43.41
-14.43
-73.76
-86.95
-42.04
5.42
44.83
70.5
43.96
0.15
-88.59
-105.47
-15.28
42.56
55.3
38.99
12.39
-3.65
4.89
29.49
-0.21
-34.52
-0.17
21.53
12.48
-20.12
-59.55
-90.01
-16.77
65.24
14.97
-14.1
-17.03
-23.76
-13.25
-17.47
2.52
52.99
33.34
-33.6
-111.22
-148.43
-166.57
-150.5
8.12
145.93
170.76
127.88
102.72
82.19
42.97
12.79
-7.38
22.25
52.45
37.63
20.52
26.37
13.13
-37.69
-93.82
-96.84
-11.93
19.28
11.75
-21.19
-39.86
-2.09
56.16
64.35
29.64
-55.11
-97.58
-44.1
-26.56
-24.02
10.39
32.38
38.88
-14.22
-26.06
-1.93
37.2
55.55
30.48
3.67
-13.06
-31.26
-36.3
-45.24
-7.3
30.13
32.76
2.56
-33.29
-61.16
-66.85
-30.01
-16.72
-23.62
-14.42
-10.94
-64.29
-108.16
-69.84
51.75
141.5
161.95
151.6
94.72
15.76
-20.4
5.28
6.42
-9.03
-50.59
-79.22
4.5
107.38
80.11
24.67
-41.54
-85.16
-55.24
-86.28
-51.84
31.39
74.51
13.57
-77.51
-78.22
-9.27
73.68
79.89
38.52
-20.88
-59.88
-86.01
-49.68
42.13
88.94
50.81
0.63
12.61
44.86
46.6
19.52
-49.05
-99.22
-76.6
-22.37
1.46
-36.72
-24.61
26.99
64.69
61.74
27.93
36.76
61.16
48.78
28.49
-13.05
-49.57
-67.15
-73.53
-56.06
-45.45
-0.46
22.51
50.72
62.63
51.12
23.26
9.39
6.18
23.53
47.54
40.76
62.33
47.83
-17.24
-64.84
-72.53
-59.37
-118.09
-168.47
-107.74
63.63
69.53
-34.12
-58.26
23.28
69.06
69.27
46.16
39.13
45.51
35.88
6
-50.86
-135.79
-156.63
-24.87
142.5
176.33
101.79
33.24
17.5
18.97
6.31
-4.76
-29.81
-76.36
-88.24
-78.28
-56.96
-30.77
-41.78
4.39
74.83
87.42
91.52
84.39
70.09
58.58
45.78
28.31
-12.97
-35.24
-21.6
-10.21
-20.63
-53.67
-73.1
-45.44
12.72
74.91
66.8
28.44
-5.96
-28.26
-28.1
-22.04
3.73
27.44
-2.07
-47.03
-35.2
-12.48
-34.58
-32.18
-35.9
-20.01
-2.81
12.04
49.98
67.26
48.04
28.93
1.64
-57.53
-78.29
-109.28
-127.95
32.77
143.77
74.65
1.64
8.44
19.49
-15.56
-58.35
-72.16
-39.67
4.99
48.1
77.11
76.55
62.23
44.38
18.67
-36.05
-99.6
-59.55
-17.99
-19.8
-10.4
25.13
52.18
41.94
16.73
-3.67
11.13
-26.67
-63.52
-47.94
-55.52
-71.86
-60.09
14.61
68.06
49.29
19.73
37.12
46.59
28.71
38.46
76.97
60.22
23.95
11.88
27.35
14.82
3.27
-0.52
-0.72
8.71
4.22
-35.68
-68.03
-41.02
-10.16
-46.5
-84.86
-68.17
-9.4
48.66
45.8
35.5
14.22
-11.36
-17.49
-11.97
4.62
16.66
9.91
12.1
16.77
21.94
-6.98
-98.99
-120.31
-54.44
-10.52
21.22
14.83
-57.73
-100.1
-111.69
-80.61
32.48
118.17
113.09
115.04
84.87
-2.14
-37.54
-16.57
-4.39
-3.26
28.11
47.39
56.76
78.55
63.28
36.93
25.95
12.52
-0.45
11.54
28.91
-16.55
-63.53
-46.67
-26.98
-24.01
-9.8
12.52
-11.69
-59.6
-87.86
-41.42
47.04
54.04
40.45
45.44
-9.03
-92.7
-26.85
38.9
34.41
26.59
7.24
-1.69
-2.01
13.18
23.55
18.97
3.79
5.55
8.41
4.57
-16.48
-46.99
-49.83
-36.35
-18.55
-7.86
-44.25
-65.58
-90.15
-87.77
-40.93
-7.75
22.88
34.67
22.02
14.35
-2.41
1.15
7.63
45.69
83.55
93.92
57.03
34.14
22.89
6.93
8.75
13.39
13.33
-6.91
-19.31
-25.35
-57.22
-69.24
-17.57
24.18
27.17
45.4
34.44
-32.72
-84.5
-32.69
43.03
37.74
-3.8
-12.99
-3.17
17.06
26.07
0.39
10.56
58.97
67.64
13.25
-30.33
-38.36
-25.41
-9.51
4.44
3.89
-34.62
-82.62
-74.95
-65.45
-37.2
20.32
26.49
10.35
13.11
24.16
22.89
1.59
17.75
22
11.32
-42.31
-95.84
-100.75
-74.19
25.49
68.41
89.36
113.51
75.54
15.12
-12.44
12.57
61.8
56.04
45.55
31.34
-16.04
-25.77
1.79
-25.46
-33.68
4.5
2.65
-19.37
-27.56
-4.77
21.9
17.43
-4.68
3.62
-6.39
-1.64
-0.28
0.93
20.8
23.79
-17.06
-34.46
-36.62
-55.18
-70.06
-56.32
-34.59
-29.49
-19.05
21.39
99.36
110.12
69.48
44.55
52.99
44.73
25.7
11.17
-31.14
-90.61
-87.82
-25.07
-4.21
-27.32
-19.95
10.58
6.96
-15.59
-39.39
-56.98
-29.14
-10.27
-75.24
-33.95
83.11
96.99
78.88
82.4
67.84
22.5
-2.79
1.72
27.13
28.52
-12.73
-22.87
-24.49
-30.95
-37.81
-36.23
25.1
37.64
1.7
-27.69
-61.27
-72.64
-72.13
-79.69
-31.42
14.66
28.87
78.53
66.24
18.07
-27.97
-30.36
12.85
54.36
43.02
-31.11
-93.32
-50.69
18.58
63.65
48.7
27.77
38.53
20.72
-46.11
-84.39
-50.08
5.52
31.55
37.87
31.78
30.02
26.73
14.08
19.85
34.32
28.7
15.43
-4.7
0.64
-7.83
-30.57
-37.43
-48.73
-3.12
52.86
71.09
52.63
22.29
-46.88
-99.04
-102.63
-51.94
-33.34
-63.61
-42.21
-2.4
-12.83
-13.96
16.73
8.1
11.69
30.14
60.99
92.38
64.93
19.13
20.83
54.61
59.89
38.13
9.47
2.64
-43.81
-91.69
-69.55
-16.6
-12.1
12.58
44.56
24.96
15.35
66.65
81.81
56.16
36.67
37.63
14.01
-26.8
-55.48
-79.86
-80.84
-74.44
-22.6
24.37
-0.04
-62.6
-96.37
-62.51
19.71
47.26
36.69
13.2
11.08
29.97
-32.68
-105.65
-77.9
3.99
53.69
68.68
68.19
56.72
22.49
-21.88
-51.06
-77.42
-53.24
4.22
44.21
65.24
48.72
10.78
-26.24
-28.59
2.33
15.9
-0.45
18.45
38.27
21.61
31.67
38.43
-4.73
-33.03
-32.66
-21.36
5.32
19.79
14.53
-1.35
28.44
51.98
32.61
-16.06
-43.29
-32.81
-4.3
-44.33
-57.55
11.2
26.93
25.18
19.41
-0.42
-34.99
-62.23
-89.59
-57.8
28.33
25.68
28.29
11.4
9.67
39.11
12.18
-2.27
-4.19
21.84
58.61
32.39
6.61
3.61
8.27
19.73
-31.58
-90.91
-56.19
17.44
6.08
-16.22
7
30.21
14.63
7.3
25.94
12.29
-1.03
0.73
7.77
-1.12
-21.33
-16.7
1.93
-3.32
-15.45
-41.16
-56.75
37.05
92.1
51.86
-2.94
-20.09
16.03
37.43
10.14
-5.66
-21.27
1.81
19.49
15.83
7.28
0.56
7.26
-20.1
-92.74
-104.41
-85.9
-137.14
-119.35
-75.32
-17.22
39.55
131.71
131.15
84.57
24.61
10.37
20.67
27.38
-8.39
-51.43
-41.48
48.27
95.8
51.03
-22.81
-24.36
-24.6
-30.78
-41.08
-55.81
-43.69
-50.36
-8.39
88
84.4
63.94
53.99
41.57
32.04
40.93
28.48
16.31
-0.75
-10.05
-48.55
-71.76
-53.45
-55.11
-41.33
-1.94
41.12
60.08
59.76
46.26
39.57
31.42
9.43
-22.84
-75.94
-76.45
-40.76
-42.2
-22.83
20.24
50.55
106.56
87.16
40.75
2.6
-31.09
-29.29
-2.74
-10.45
-73.17
-149.38
-180.9
-160.03
-23.08
137.29
137.07
94.93
58.14
42.87
53.49
30.54
-23.04
-93.74
-63.74
-7.74
49.13
44.59
-1.58
32.18
65.98
53.71
45.34
31.47
17.61
1.26
-11.21
-27.91
-64.06
-45.4
19.78
12.49
-24.26
-18.78
1.45
-0.27
-60.91
-78.99
-46.15
36.64
91.66
70.69
-4.83
-26.22
20.48
74.82
103.94
77.07
-0.66
-45.73
-62.72
-49.76
-20.97
-9.5
-11.65
-17.58
-14.58
6.25
21.47
20.47
4.69
-7.68
-16.81
-53.87
-79.15
-87.57
-71.95
-16.1
31.36
35.31
29.36
19.95
44.33
32.42
14.69
-2.78
-13.61
-7.16
17.09
34.8
32.23
-9.44
-29.76
-35.77
-35.83
-18.83
-19.9
16.24
78.21
63.49
8.86
-1.83
-9.94
-10
-32.27
-53.8
-27.61
-13.99
-45.16
-33.54
23.41
55.33
55.35
47.18
24.47
-14.24
-44.73
-40.72
7.66
53.49
55.77
31.67
16.66
6.7
-15.7
-26.84
-19.69
-0.15
14.96
4.2
-16.77
-16.62
-4.77
5.63
13.5
15.8
18.93
16.93
7.31
0.21
-12.17
-31.22
-50.97
-40.8
-0.22
3.01
-2.92
-3.24
-9.13
-6.95
1.32
-8.47
-27.84
-18.9
-11.03
-13.76
-1.78
17.33
18.42
4.06
-3.85
-13.89
-16.15
-11.18
18.06
23.24
4.64
-8.5
-8.29
-8.82
-1.25
6.95
10.31
13.34
22
41.35
32.99
14.69
16.07
21.4
7.18
-22.59
-36.09
-46.5
-47.73
-18.99
30.13
33.6
14.06
12.58
13.31
6.27
-4.49
-9.11
-3.62
11.57
21.36
26.64
22.96
17.35
3.61
-0.3
-2.73
-12.53
-31.6
-38.07
-11.63
6.95
5.69
-2.11
-7.84
-6.16
1.77
6.73
9.99
9.01
9.49
7.74
7.24
5.37
2.13
5.02
4.35
-3.61
-7.6
-7.34
-13.72
-29.22
-34.9
-15.74
-9.14
-5.02
-2.33
7.93
7.98
4.82
0.41
8.05
20.17
28.06
20.17
6.84
-1.22
-2
-8.88
-8.96
-3.72
-7.25
-8.66
-4.08
-1.67
0.36
4.28
5.26
8.71
11.44
13.1
10.27
9.88
9.13
11.72
12.6
6.55
-0.6
-1.89
-1
-7.48
-9.53
-10.17
-12.32
-12.48
-6.34
-6.81
-4.47
-0.71
3.53
7.33
7.47
10.4
13.9
7.87
-1.5
-4.26
0.05
9.37
11.4
0.37
-5.01
-9.1
-7.99
-7.96
-4.97
-2.4
-11.24
-13.87
-2.32
16.26
20.05
16.09
16.68
14.35
12.09
9.87
-3.23
-11.29
-10.95
-17.64
-15.07
-4.21
-9.63
-10.6
-12.29
-12.26
6.69
7.03
10.57
13.82
11.8
11.56
11.14
7.29
3.31
-0.38
-3.39
-5.01
-6.23
-8.39
-10.35
-12.74
-10.91
-6.78
-3.63
-0.02
2.91
5.44
9.06
10.05
10.04
10.67
8.97
6.24
3.96
0.22
-1.67
-5.93
-6
-8.86
-11.55
-11.44
-9.73
-7.47
-4.03
-1.32
1.77
6.33
8.26
10.18
12.51
13.25
11.51
10.22
5.68
1.91
0.28
-2.99
-5.55
-4.98
-5.83
-9.96
-10.43
-8.94
-5.16
-2.83
-0.02
4.01
6.89
9.46
11.12
13.84
12.81
12.01
9.44
6.64
1.82
-3.12
-5.88
-9.29
-11.39
-11.31
-12.27
-11.48
-7.31
-6.09
-2.77
1.87
5.51
7.75
11.58
12.54
12.94
11.25
8.02
5.66
4.64
-1.21
-5.54
-7.46
-10.15
-11.61
-11.74
-12.15
-11.36
-7.34
-5.19
-1.61
2.68
5.9
9.37
8.48
7.23
6.77
7.37
5.61
4.72
-0.27
-3.05
-4.88
-10.6
-10.46
-13.99
-10.81
-9.74
-8.55
-6.69
-0.39
2.05
4.68
9.41
9.38
10.35
11.17
12.47
9.54
3.78
2.21
-2.01
-3.42
-5.3
-5.84
-10.44
-11.24
-11.87
-9.1
-7.61
-5.97
-1.31
4.78
7.69
9.38
11.9
14.57
15.61
12.95
7.58
2.3
2.3
0.62
-3.36
-5.85
-9.31
-11.35
-11.61
-9.21
-6.26
-3.63
-1.38
0.23
4.33
5.99
9.07
11.1
10.79
11.53
8.67
7.72
1.85
0.99
-2.17
-5.2
-6.95
-10.49
-11.14
-9.98
-8.44
-5.32
-2.34
0.41
3.05
6.27
8.57
11.02
10.7
13.32
9.98
8.72
6.14
1.87
-3.25
-5.8
-9.47
-10.53
-11.41
-11.88
-10.15
-8.23
-6.94
-2.43
1.67
4.29
6.29
8.79
11.02
9.85
10.64
7.91
6.55
3.05
0.06
-3.05
-5.5
-6.68
-10.61
-11.1
-10.9
-7.84
-4.88
-2.51
-0.17
5.68
7.1
7.55
9.56
9.9
10.9
9.93
7.68
4.75
1.14
-0.54
-6.58
-7.25
-9.34
-10.93
-10.84
-7.34
-5.38
-3.69
-1.62
3.74
5.33
7.39
12.14
12.66
13.27
13.78
11.16
8.43
3.73
0.22
-4.97
-7.88
-8.32
-11.12
-10.4
-10.5
-8.64
-7.79
-3.84
0.34
2.93
5.63
8.68
11.78
10.85
10.44
9.09
7.24
4.08
-1.68
-5.04
-6.7
-9.16
-12.16
-11.87
-12.25
-10.73
-8.11
-5.67
-0.56
3.32
3.82
7.68
11.15
11.3
8.9
10.02
8.6
2.88
2.52
-0.71
-6.71
-9.51
-12.29
-14.14
-12.93
-10.69
-9.75
-5.25
-5.45
-13.46
-12.09
-4.99
4.65
9.02
17.88
19.91
15.03
10.55
6.77
1.62
-1.85
-4.96
-8.63
-11.65
-10.24
-8.35
-14.11
-29.04
-27.65
-14.63
2.32
18.6
21.42
17.51
16.59
11.78
-6.85
-19.75
-37.98
-42.09
-24.61
-13.83
-28.45
-25.46
-8.45
-4.05
-7.02
-9.52
-2.18
15.74
26.8
32.55
26.08
13.96
15.87
22.75
16.77
-1.12
-13.37
-10.54
-11.68
-19.67
-23.38
-14.86
-6.07
-9.42
-3.65
6.54
7.73
8.53
-0.99
-6.13
7.01
23.69
24.53
17.38
2.83
-2.84
-1.32
5.27
10.07
10.55
-2.38
-3.91
-19.92
-20.22
-7.06
1.6
-6.98
-19.3
-13.07
5.11
22.92
27.56
20
9.77
-7.97
-1.97
5.31
5.48
11.6
3.81
-3.96
-6.08
-9.8
-13.67
-28.38
-53.88
-53.82
-19.41
2.26
20.1
26.94
9.39
-13.22
-2.1
7.68
14.07
32.27
21.07
10.58
15.74
15.67
-4.42
-7.54
-7.68
-15.69
-3.62
-14.2
-51.53
-63.91
-67.53
-39.81
6.81
25.82
11.35
9.24
-6.99
4.01
34.59
-1.42
-38.18
-40.45
-25.82
-39.65
-66.45
-18.37
25.08
-7.33
-57.69
-45.38
18.45
5.47
-13.75
3.84
17.48
5.71
-26.02
-21.46
11.21
38.85
55.02
19.08
-35.36
-38.12
2.61
21.23
10.73
14.08
3.99
-16.96
6.6
49.89
67.9
111.54
72.9
12.24
27.26
10.75
-30.12
-40.39
-70.61
-80.19
-17.4
20.3
-39.13
-124.42
-136.18
-60.6
26.08
66.09
49.94
29.14
32.39
30.81
21.72
4.87
-7.93
-21.85
-33.34
-16.71
10.08
15.96
2.66
-23.19
-62.02
7.89
42.36
21.5
24.95
8.07
-73.53
-86.35
-32.72
-43.12
-39.33
-4.47
11.44
38.83
93.35
67.36
48.34
57.63
2.63
-24.92
-35.45
-17.44
-3.79
23.76
12.74
-45.62
-48.14
20.13
57.57
46.47
22.4
-4.36
6.77
43.09
49.74
41.47
23.32
-6.39
-46.26
-111.84
-129.37
-64.37
5.35
34.67
10.12
-1.34
-12.85
-38.61
-39
19.63
65.44
84.46
85.84
64.1
13.2
1.12
-44.33
-143.47
-201.38
-142.88
-12.53
118.5
91.44
37.95
52.6
73.76
58.01
29.08
53.72
62.06
31.84
5.67
22.5
19.37
-31.9
-89.56
-53.7
-2.07
34.7
51.36
32.42
1.31
25.89
20.92
-33.84
-83.08
-70.59
-46.18
-2.24
4
37.64
65.6
48
28.61
16.44
-18.08
-6.32
10.78
-7.47
-33.21
-41.24
-33.47
-9.47
-21.29
-23.69
-22.35
-13.04
-5.2
7.56
-19.6
-70.37
-67.66
-22.7
23.08
-40.92
-104.77
-62.42
2.7
4.99
20.87
18.83
26.18
61.74
15.18
-72.1
-43.28
30.13
34.85
25.72
32.16
27.84
10.04
-58.11
-94.32
-66.2
-17.74
-7.55
32.44
76.33
56.01
82.68
58.59
11.15
-46.83
-81.67
-40.4
19.6
52.26
49.62
18.18
-20.18
-35.77
-31.35
-38.48
-38.85
17.09
99.92
98.44
32.3
-55.99
-98.25
-101.83
-80.52
-85.02
-53.85
-33.5
44.29
58.01
64.87
55.05
40.83
35.38
17.85
-3.4
-46.51
-52.66
4.15
27.46
5.78
19.01
43.68
46.63
57.49
57.9
43.9
8.45
-38.22
-77.85
-88.16
-23.02
-3.91
-19.23
-46.13
-84.98
-50.79
56.2
60.59
38.22
36.24
48.16
49.22
48.94
54.37
34.91
-17.03
13.89
35.45
-32.82
-51.35
-52.11
-39.99
-101.15
-140.27
-66.26
54.97
37.35
-46.88
-89.77
-36.19
36.46
87.98
67.19
1.61
-60.73
-67.96
-33.91
-100.06
-195.3
-79.7
77.19
131.21
107.54
43.05
6.3
-32.18
-55.14
-78.06
-51.23
30.98
135.54
156.67
104.5
55.35
61.58
54.12
54.48
49.78
-28.47
-108.68
-142.05
-131.08
-90.89
-32.98
28.71
100.68
93.84
75.5
60.19
30.97
19.63
29.71
21.01
6.38
-0.02
-52.16
-88.44
-91.67
-122.03
-106.49
29.78
47.69
-64.88
-101.95
-80.09
29.18
85.71
58.03
23.62
-7.03
14.91
54.15
41.78
-4.6
-151.19
-282.97
-206.71
-23.32
101.4
164.26
170.57
117.28
50.71
37.15
68.82
74.07
33.88
26.6
61.04
67.99
28.96
-28.83
-145.97
-173.46
-69.26
-15.35
3.51
3.43
-18.04
53.94
78.83
61.33
-4.94
-42.73
5.96
0.48
-45.75
10.98
73.15
37.41
-38.82
-78.34
-95.15
-121.88
-121.6
14.66
123.81
75.76
40.78
68.7
55.26
31.89
11.36
-24.93
-86.07
-57.64
0.41
48.75
42.97
-65.61
-191.36
-168.01
3.85
73.58
41.16
30.53
70.23
87.38
33.4
-72.19
-119.21
-108.45
-164.77
-309.65
-144.85
135.64
209.18
162.51
68.58
25.65
31.01
54.76
55.09
-19.08
-80.98
-60.82
-38.21
-61.19
17.83
105.51
58.7
-31.82
-38.19
-2.43
36.82
32.75
-12.04
-34.91
-25.14
37.16
76.74
57.2
-11.99
-29.16
40.03
126.55
101.09
-36.96
-100.01
-95.9
-82.63
-43.07
-43.65
-30.31
-62.64
-72.59
9.35
62.53
68.57
99.98
71.89
-21.27
-166.98
-151.73
24.31
129.81
142.05
114.58
90.77
67.29
48.73
-16.68
-114.55
-202.93
-286.22
-322.48
-124.15
85.87
143.28
52.26
7
8.19
24.38
99.83
82.31
53.27
25.54
-22.4
-67.92
-37.15
28.21
76.11
98.52
38.11
39.88
68.27
40.21
-54.84
-134.96
-47.97
66.14
36.59
-93.61
-73.68
36.84
10.39
-25.72
-21.01
-20.31
-17.75
46.43
61.29
22.63
3.33
-66.41
-60.69
-30.45
16.62
41.4
12.58
10.77
32.77
24.98
20.81
61.11
24.49
-109.01
-202.5
-235.96
-188.55
-63.52
152.04
139.65
18.68
-4.92
29.02
32.24
-16.71
-54.94
-14.55
58.76
95.69
117.96
98.6
78.59
101.75
102.65
80.55
46.67
14.35
-62.1
-141.38
-145.43
-59.88
0.66
-5.04
-8.57
23.54
-27.81
-121.49
-130.83
-90.73
51.15
55.35
0.1
60.24
-17.82
-158.9
-73.42
43.28
25.73
22.66
86.97
73.01
19.8
56.8
29.44
42.32
70.4
28.78
-36.63
-35.15
-55.18
-18.92
39.58
48.26
-11.43
-72.69
-59.75
-120.06
-187.54
-167.15
-147.03
-45.59
89.97
135.15
135.43
120.07
89.62
4.32
-93.47
-114.86
-58.3
5.74
87.11
133.97
117.91
93.08
61.17
33.12
51.3
79.91
35.07
-21.8
-69.99
-107.06
-136.79
-134.06
-37.94
20.28
-6.17
-28.45
24.12
69.86
-4.54
-132.85
-268.66
-333.89
-135.01
130.99
203.58
184.4
150.05
107.69
44.2
-30.46
-89.9
-107.67
-125.62
-190.8
-115.65
49.97
169.5
181.69
142.33
93.49
58.13
8.13
-41.15
-278.05
-468.36
-274.7
13.47
192.3
260.86
241.47
189.27
112.97
76.01
75.06
57.95
13.34
-68.01
-94.13
-77.08
-11.47
44.01
91.98
53.81
-17.34
-109.42
-206.68
-229.5
-100.94
101
225.41
196.16
131.2
84.13
46.35
8.62
-9.02
5.92
14.97
-38.34
-93.86
-69.44
-10.93
11.24
-68.85
-130.45
-59.07
41.94
52.08
-24.23
-4.01
66.41
48.94
-28.7
-12.76
73.68
85.4
-5.15
-87.15
-120.44
-98.47
-73.98
-55.49
3.62
53.71
22.79
-78.69
-125.43
-13.32
76.51
53.87
14.53
-19
-122.98
-162
-73.6
7.13
61.71
93.6
92.42
105.79
83.05
40.69
-27.13
-230.42
-371.63
-265.36
-40.27
226.4
306.46
249.25
178.21
116.06
63.58
41.7
14.79
-51.09
-88.05
-78.06
-48.9
9.41
52.69
14.72
3.31
4.62
-76.6
-166.49
-130.06
-129.16
-101.12
46.96
103.7
35.62
-2.84
60.3
108.6
85.9
47.1
-15.53
-65.42
-42.96
24.5
54.95
71.45
60.22
31.1
-6.89
-67.28
-53.6
-18.17
29.7
-2.84
-35.14
-61.34
-109.77
-114.53
-80.17
-56.88
-26.68
33.07
43.07
35.69
44.51
78.43
134.47
121.46
60.86
-3.24
-37
13.23
16.01
-15.69
-125.94
-119.76
8.52
-9.32
-110.07
-170.22
-176.4
-147.45
-8.5
171.72
197.91
140.64
117.21
102.39
66.35
34.98
4.47
15.44
14.72
-120.45
-174.18
-113.15
-69.56
-88.2
-108.81
-32.25
-22.98
-30.25
63.46
109.87
85.6
45.23
28.35
47.32
89.1
72.17
55.99
42.45
-5.72
-82.63
-116.68
-150.63
-156.85
-54.47
80.94
97.61
49.18
55.73
47.09
-7.3
-15.98
5.97
-21.59
-39.3
-2.88
23.56
-16.2
-70.56
-2.97
54.9
59.89
40.35
-19.39
-164.7
-275.85
-206.58
23.38
140.21
97.82
26.38
-55.07
-68.67
-65.8
-4.4
82.06
50.96
71.87
121.38
102.94
77.37
15.99
-40.45
-98.87
-127.04
-120.35
-94.44
-15.46
33.91
82.62
71.55
57.64
73.51
24.36
-67.55
-74.07
-73.29
-127.92
-116.63
-39.07
88.54
165.86
115.79
2.79
-74.58
-117
-109.71
-40.88
61.42
115.57
102.36
55.72
15.67
6.5
8.24
29.66
32
24.71
37.31
4.71
-28.34
4.71
-5.13
-53.69
-75.04
-118.54
-186.31
-277.96
-287.72
-75.77
218.74
254.62
167.17
121.37
101.97
67.73
49.03
26.85
-6.39
-9.41
22.43
6.68
14.78
-5.74
-21.8
-19.84
-83.09
-133.64
-104.17
-8.79
24.82
-19.22
-66
-7.49
74.39
44.38
-44.56
-115.83
-11.84
76.46
91.95
67.21
38.08
63.54
51.27
13.34
-1.92
-32.58
-77.67
-114.12
-79.98
-13.76
9.5
37.93
42.97
31.62
26.21
-13.41
-46.49
-40.2
-20.86
19.81
14.2
-13.78
-119.27
-64.99
6.89
64.31
76.4
29.76
-75.44
-162.7
-266.9
-297.65
-110.09
129.28
176.43
175.48
148.21
132.98
101.7
75.36
52.41
40.81
11.62
-43.12
-98.51
-97.47
-103.47
-73.84
2.74
29.73
57.69
44.39
15.4
-52.43
-199.27
-304.86
-230.17
-19.99
169.76
208.57
189.42
185.65
139.07
100.33
62.01
46.03
48.83
23.71
-50.36
-113.19
-107.59
-63.23
-83.75
-115.72
-34.38
45.7
56.95
51.67
17.94
29.36
-29.61
-148.12
-179.15
-133.4
-73.75
0.71
-14.06
34.57
105.32
90.94
6.36
-49.47
-34.85
29.36
40.15
51.78
36.82
41.28
80.28
54.23
12.33
16.72
-10.55
-83.2
-167.14
-130.85
11.45
82.91
58.54
19.37
25.02
73.36
75.48
14.61
-26.28
-32.67
23.74
25.82
-103.03
-184.22
-192.08
-139.97
-142.71
-185.21
-81.73
94.32
161.51
117.85
39.91
93.21
169.39
145.3
121.18
60.57
-7.6
-1.35
31.8
25.48
-12.28
-17.49
-64.04
-148.46
-208.45
-140.41
5.71
-17.36
-70.66
7.17
89.98
88.37
86.7
65.1
42.2
42.6
19.5
-1.97
-15.85
-56.75
-109.77
-59.39
48.08
46.99
-14.29
-29.36
-23.03
-38.12
-69.42
-45.69
-23.13
-18.62
14.93
18.46
22.73
101.02
89.8
44.59
-21.25
-136.3
-199.91
-115.55
20.93
98.06
83.65
68.96
95.39
63.72
-9.49
-31.35
24.34
9.67
-10.65
-0.93
-25.35
-57.49
-119
-195.83
-141.36
59.75
170.42
122.59
36.42
31.52
64.56
85.97
53.5
-47.97
-180.99
-228.7
-148.71
-36.44
50.16
72.39
113.7
56.36
-24.92
4.19
39.36
-48.92
-161.02
-142.41
-19.64
128.71
140.81
128.32
101.97
45.38
17.64
51.51
6.05
-98.1
-139.4
-21.52
31.38
-25.71
-44.87
-28.8
-4.61
-12.72
-16.73
46.98
42.92
19.34
-23.66
-31.12
-25.18
-3.75
19.23
9.28
33.83
57.21
13.07
-0.29
29.82
32.36
27.91
12.76
-20.16
-39.22
-51.12
-151.51
-224.76
-163.76
-20.9
117.86
151.97
134.86
77.65
48.23
41
-6
-14.44
38.32
57.7
9.23
-16.88
-48.67
-59.12
-34.9
-32.57
1.9
46.1
63.18
20.38
-39.36
-34.2
-34.69
-102.17
-169.23
-57.35
62.4
13.14
-42.32
-17.74
13.55
-64.28
-116.71
-216.9
-217.21
28.24
192.57
198.45
130.6
72.38
63.22
70.97
62.2
26.05
-24.9
-15.85
46.33
39.74
6.34
-7.47
-21.4
-87.08
-105.09
-67.27
-28.22
-24.15
-8.39
36.53
77.24
59.71
4.07
-20.87
-5.69
5.41
-12.8
-52.86
-108.53
-85.61
-13.65
43.64
38.49
60.39
58.07
13.24
-35.79
-6.68
82.82
53.5
9.44
-29.86
-29.25
-38.89
-57.7
-43.38
-57.11
-82.32
-50.21
-60.42
-147.21
-143.94
6.9
156.68
136.63
32.71
-66.85
-144.95
-100.4
29.74
113.65
104.55
79.44
68.11
83.28
59.89
33.63
6.91
-37.71
-78.65
-127.18
-115.08
-30.45
33.51
130.98
114.53
84.77
58.77
52.73
21.49
-25.13
-88.98
-132.11
-102.92
-60.56
-7.13
64
81.75
62.62
12.5
-52.15
-78.86
-31.44
11.04
72.97
32.84
-69.35
-124.91
-22.94
18.09
7.5
42.78
74.59
67.89
29.35
-34.82
-84.73
-158.97
-83.05
29.13
-92.21
-243.29
-132.23
130.87
184.07
128.69
94.08
44.61
-13.4
-34.77
-5.18
3.63
52.8
71.32
80.32
49.78
28.6
14.58
-8.14
-25.23
-39.8
-42.84
-30.93
-13.55
-0.43
22.95
47.83
24.16
-18.06
-58.48
-82.12
-105.91
-65.12
-73.33
-36.99
35.62
79.47
-12.08
-146.1
-115.48
-1.81
63.8
86.62
61.82
-5.9
-30.75
-39.51
8.01
82.39
90.85
70.13
36.29
33.38
10.87
-28.66
-118.22
-154.95
-57.06
24.54
18.27
-49.53
-148.35
-96.86
-5.54
55.88
88.02
91.17
121.81
94.15
13.74
-29.25
-13.22
42.65
76.23
35.54
-6.58
-25.89
-20.09
0.24
8.12
13.28
-31.43
-95.93
-93.24
-111.78
-187.6
-97.99
2.01
73.11
77.97
46.12
37.08
-5.49
5.34
39.24
46.69
44.83
37.58
-1.9
-23.54
-14.38
4.35
14.17
7.09
59.51
83.94
44.75
16.31
5.53
-26.9
-60.93
-40.46
-14.05
-7.91
-37.65
-38.03
-29.03
-46.1
-80.84
-81.62
-50.12
45.11
66.61
23.31
16.06
36.65
9.36
-20.41
-36.03
-44.13
-34.94
-16.64
6.26
52.69
73.66
50.71
-1.47
-15.51
17.88
39.29
-19.86
-47.16
49.86
53.18
20.38
15.98
-13.59
-102.81
-122.27
-54.03
-40.51
-44.5
3.02
28.41
73.31
92.31
87.93
62.98
36.46
34.08
1.55
-71.21
-108.01
-80.7
-89.62
-84.4
-44.22
1.21
12.56
1.34
-14.2
-21.26
-56.98
-80.55
-65.6
-37.15
86.09
170.89
120.11
16.76
-22.98
-35.44
-43.82
12.69
94.57
90.84
23.78
-4.5
-23.9
-46.4
-39.9
-48.42
-49.57
-38.2
22.22
59.8
54.14
37.69
-8.75
-71.55
-79.04
-26.75
58.85
50.88
-21.29
-14.33
4.05
-19.57
-65.45
-69.99
-18.33
41.95
-19.31
-102.85
-113.17
-27.88
39.51
61.47
37.49
42.87
58.37
-23.64
-31.54
31.43
51.75
74.77
74.98
31.09
-16.81
-63.19
-97.04
-92.22
-44.39
22.22
60.24
65.64
30.56
-1.84
-1.6
27.71
10.43
4.55
14.54
12.55
-10.44
-20.18
-4.53
1.36
8.43
13.87
9.33
-10.05
-7.9
-1.66
-51.27
-67.54
-27.38
0.82
9.13
21.46
26.26
52.45
74.56
54.12
13.15
-57.68
-101.87
-83.43
-25.26
-25.08
-51.98
-42.35
-56.9
-73.1
-15.95
56.39
83.25
50.26
-7.73
-32.96
-12.87
20.4
49.68
-22.49
-129.46
-176.31
-146.51
-27.8
68.09
106.41
82.53
68.17
80.23
63.3
47.63
36.76
2.24
-17.14
-29.01
-16.45
30.63
35.77
18.92
-3.5
-5.6
5.97
23.73
38.43
13.97
0.61
5.7
-8.81
-31.43
-30.2
-73.37
-97.38
-62.35
8.19
41.83
62.47
21.75
-44.53
-72.28
-41.55
13.19
33.44
10.29
52.45
41.36
1.91
-4.93
0.19
-22.52
-51.78
-62.15
-3.43
49.91
15.34
-20.67
-27.45
-47.52
-38.29
1.01
41.05
56.07
66.42
55.49
30.36
6.67
-11.71
-13
-5.71
20.84
18.66
22.72
8.03
-68.76
-122.92
-82.26
11.16
45.5
17.62
-26.02
-42.55
-7.91
37.56
65.33
-14.37
-51.72
22.19
27.68
-6.82
-31.52
-21.02
3.14
23.25
19.4
-15.69
-10.45
31.94
51.53
57.59
31.98
4.74
4
-17.33
-32.41
-39.8
-49.62
-28.49
6.67
35.26
32.13
0.34
-2.64
-1.3
-18.53
-70.13
-138.18
-129.81
-58.95
36.85
72.41
21.85
-15.36
8.46
12.46
21.46
53.94
69.66
50.32
7.47
1.84
2.57
12.35
13.27
10.99
29.61
21.88
-3.67
2.52
27.7
18.19
-10.93
-51.6
-43.58
-53.77
-57.43
-24.51
0.7
15.53
26.38
47.11
6.44
-2.53
-0.95
-49.71
-70.34
-20.32
22.58
30.2
-16.64
-60.67
-66.03
22.8
109.7
99.49
82.17
80.56
64.06
42.02
27.96
25.28
20.39
-4.92
-38.91
-51.63
-29.22
14.03
41.89
24.87
4.23
0.07
-4.5
-43.75
-65.18
-68.02
-75.45
-29.48
17.22
59.77
56.54
-6.65
-4.04
-41.43
-109.58
-111.36
-65.16
-14.16
-9.11
-8.37
-19.34
15.25
62.86
64.46
35.33
-5.75
-55.64
-70.87
-64.14
-29.97
2.01
-5.64
-31.76
-8.01
3.29
22.35
18.01
37.43
46.15
26.73
24.71
-28.55
-71.41
-83.14
-50.2
73.68
108.41
80.92
87.71
78.49
36.17
8.88
2.15
15.28
8.12
-16.02
-25.85
-21.63
-8.95
20.9
23.66
-26.5
-33.1
-26.59
-60.57
-89.77
-45.22
48.03
59
42.43
38.5
0.76
-24.11
-26.58
-37.73
-56.05
-74.81
-42.16
54.53
60.96
54.62
30.28
7.15
34.31
71.46
78.83
70.87
41.88
10.93
-41.71
-108.24
-170.29
-96.82
15.37
16.29
13.28
-6.67
-41.17
-37.98
-25.43
-41.18
-42.54
-12.35
7.62
4.69
47.36
85.82
78.66
62.04
57.33
54.63
63
42.2
-13.22
-61.69
-20.32
55.96
65.11
14.04
-34.51
-138.51
-211.33
-145.84
-57.41
-16.85
-20.59
18.64
86.34
76.24
46.7
35.2
41.21
33.23
40.22
26.8
2.05
-10.33
-27.46
-32.6
-26.9
5.98
3.83
-46.34
-17.14
22.01
23.32
38.59
52.9
52.19
30.8
15.12
6.99
38.93
21.44
-0.92
13.13
-15.63
-73.54
-152.76
-195.46
-135.3
-43.14
52.74
70.69
31.91
24.07
-10.54
-13.77
45.29
109.71
126.82
87.26
24.21
-60.18
-103.14
-53.72
-29.74
-2.56
17.74
3.76
-68.58
-124.22
-62.83
-0.72
70.03
67.39
48.32
47.42
70.98
70.27
56.46
56.43
48.03
63.21
91.68
37.16
-30.05
-101.99
-176.04
-151.9
-44.83
37.63
24.34
4.85
3.77
25.97
23.37
13.62
13.1
-19.88
-71.79
-86.51
-12.21
49.96
77.4
99.33
91.14
55.38
2.42
-54.04
-82.44
-93.4
-90.04
-90.97
-80.79
-141.42
-135.52
-45.32
62.06
114.75
119.93
128.82
119.47
93.48
46.01
7.67
-2.03
-20.84
-47.18
-29.89
-20.53
-34.56
-38.83
7.96
19.55
-5.45
-17.74
-20.4
11.18
13.57
37.56
37.09
9.55
11.43
28.55
35.92
32.09
29.87
48.38
21.96
-50.98
-77.56
-42.84
27.58
37.62
-9.31
-49.96
-84.03
-69.61
-5.51
37.8
27.3
33.41
56.63
2.67
-40.3
-49.78
-76.63
-79.21
-75.82
-42.95
23.51
48.43
40.42
10.92
-33
-27.39
28.78
73.72
54.24
-19.24
-92.53
-79.47
18.55
54.21
39.45
-27.37
-27.45
44.12
101.46
89.11
64.84
38.27
16.33
10.83
17.45
10.66
-14.1
-10.66
-14.62
-9.71
18.94
37.76
28.24
-13.37
-81.32
-91.42
-29.24
-1.46
-54.73
-109.61
-96.9
-48.5
-20.34
32.27
73.08
66.7
36.94
-33
-59.55
-18.07
41.44
22.31
39.21
47.19
49.33
62.27
82.28
69.23
14.22
-15.64
-33.51
-38.85
-73.61
-111.37
-117.9
-35.82
10.6
-39.8
-8.73
65.08
75.66
62.2
63.41
44.38
19.59
-9.7
-72.14
-89.68
-48
-12.09
-22.89
-49.67
-64.73
-50.06
27.52
97.54
68.96
0.31
8.96
45.71
54.95
59.09
57.57
44.05
29.77
16.33
8.83
8.15
13.54
-32.93
-59.17
-66.13
-73.14
-39.48
37.67
51.26
-11.81
-49.82
-65.95
-58.2
-46
-9.26
-6.88
20.33
44.39
21.72
32.74
18.43
-42.66
-72.64
-33.47
-4.95
44.93
69.54
56.94
16.67
-0.03
7.33
46.84
48.9
18.31
7.19
6.83
-39.12
-111.33
-117.34
-29.66
57.82
87.72
110.26
80.31
16.81
-50.84
-78.32
-97.79
-84.52
-2.72
115.26
122.11
42.97
-32.82
-50.2
-23.81
-2.78
21.1
18.63
-9.02
-106.31
-192.03
-135.66
-34.68
70.21
120.25
119.43
60.32
17.67
-14.31
-34.29
-24.71
-44.9
-95.13
-46.99
7.3
22.9
48.8
65.24
60.82
87.04
114.76
79.86
32.49
-3.18
-29.37
-34.9
-52.12
-57.9
-43.59
-10.43
24.1
36.47
41.47
39.75
14.67
-3.85
-1.25
1.52
17.09
32.4
-42.22
-135.57
-154.39
-98.71
-28.78
40.74
87.21
64.26
15.91
-37.88
-54.12
-59.67
-75.48
-76.07
-29.91
11.24
28.55
52.29
62.71
48.05
6.52
27.49
58.59
9.56
-78.12
-100.23
-13.72
101.88
110.46
85.85
78.58
17.86
-16.46
1.29
25.54
14.3
-11.29
-14.16
26.18
53.37
56.92
41.73
27.12
1.38
-22.72
-23.11
-44.64
-81.72
-110.35
-122.28
-90.23
-28.8
28.13
-16.52
-71.81
-50.91
23.11
55.09
35.66
14.24
22.62
66.03
97.13
97.86
54.01
-4.78
-42.09
-41.96
-9.43
-17.25
-53.72
-61.96
-35.16
36.61
51.43
22.41
21.44
31.64
37.33
48.18
46.28
-7.14
-30.3
-24.41
-47.47
-53.11
-9.66
43.05
14.42
16.09
33.58
24.77
-11.41
-62.94
-26.59
40.37
34.52
-6.58
-38.06
-28.55
-10.45
12.44
27.15
52.92
48.93
-8.8
-62.27
-85.4
-69.89
11.08
54.96
-25.96
-51
-32.46
24.13
48.1
43.4
-11.53
-11.8
17.13
51.9
84.04
76.64
49.95
40.75
37.21
14.23
-34.1
-81.71
-114.91
-117.82
-63.32
-15.9
-12.51
3.22
45.12
61.47
-20.77
-99.18
-78.07
-19.43
33.71
9.7
-44.34
-54.74
-40.22
53.02
124.42
116.03
95.92
72.78
32.84
7.96
10.26
5.89
-16.57
-49.32
-66.78
-59.37
-8.94
54.85
76.81
76.04
20.23
-49.12
-75.88
-71.03
-62.98
-69.64
-81.04
-44.07
18.49
62.03
78.33
66.25
64.24
63.84
30.96
0.47
-20.65
-51.63
-79.46
-92.41
-0.53
53.6
-4.81
-83.28
-77.83
-9.9
58.84
72.23
25.99
2.09
28.24
42.42
31.63
22.96
0.49
-87.33
-175.12
-47.73
89.81
74.3
7.27
-15.24
-4.18
0.42
15.16
21.11
61.43
91.7
61.55
52.31
39.14
1.73
-14.97
-12.46
-40.15
-55.25
-7.78
22.45
17.67
17.2
49.76
26.32
-12.07
-43.54
-31.56
-3.41
-9.63
-45.89
-48.79
-59.28
-81.34
-98.16
-84.2
-4.44
94.59
98.68
44.32
12.87
5.19
24.91
53.38
60.27
53.59
46.85
30.42
0.14
-25.47
-23.76
10.46
-3.95
-84.83
-133.31
-80.01
-24.79
-71.1
-65.71
-15.44
0.32
-2.49
-16.67
-26.65
46.03
103.8
89.57
46.83
40.32
55.44
39.45
-14.87
-22.97
-24
-41.68
-27.35
36.37
30.46
8.04
-5.09
-19.42
-13.54
19.12
65.87
19.34
-16.1
-7.57
27.71
12.46
-8.14
-38.92
-72.31
-81.72
-33.81
63.39
102.78
50.31
3.22
-14.56
-99.72
-113.06
-24.26
27.16
-7.09
-65.87
-34.21
73.32
141
138.05
96.98
66.34
41.27
6.66
-10.67
-33.83
-120.6
-210
-212.75
-226.24
-113.05
60.22
139.09
114.63
101.4
121.7
116.11
90.66
54.71
8.07
-67.04
-116.46
-43.97
47.7
69.73
93.95
86.21
45.76
11.21
-13.96
-33.03
-14.83
-27.62
-55.09
-61.86
-15.68
44.04
16.4
-43.06
-21.37
-22.94
-37.91
-42.78
-21.57
-8.73
44.06
47.54
51.86
45.48
22.04
12.42
-13.64
-52.59
-5.12
39.31
5.22
-69.36
-87.19
-64.98
-57.8
8.66
30.19
-40.52
-60.58
-48.34
-23.64
-12.11
-19.18
12.19
21.61
61.84
72.11
57.34
74.2
70.12
42.87
21.57
3.19
-23.99
-14.54
48.86
56.98
4.94
6.41
-0.04
-58.21
-55.57
-30.94
8.68
37.89
72.38
72.5
36.41
19.51
12.17
17.29
5.16
22.56
42.08
35.58
-37.6
-85.52
-76.09
-85.7
-62.51
-0.69
0.16
2.56
-5.5
-8.13
-18.12
-43.9
-90.99
-170.88
-151.01
-75.05
-31.48
8.41
8.69
27.67
32.12
100.71
134.76
164.42
154.97
114.1
57.7
11.64
12.11
7.65
-29.01
-43.58
-12.37
3.2
-57.65
-128.89
-57.13
63.57
68.01
15.62
17.3
37.01
56.75
78.37
51.96
12.2
-32.45
-97.2
-153.92
-160.96
-44.43
13.06
-5.2
-14.22
4.75
47.33
90.12
72.9
35.9
5.05
-32.39
-74.32
-75.11
-81.65
-62.71
29.25
104.96
89.69
66.1
48.11
22.07
10.75
-3.79
-33.9
-79.3
-144.32
-216.61
-181.64
15.62
161.11
186.22
139.34
57.76
-7.15
46.25
72.12
49.98
44.11
25.49
14.4
13.02
14.82
-51.93
-109.4
-106.15
-51.73
26.1
59.55
80.66
60.05
-17.03
-47.47
1.5
10.19
-30.7
-52.25
-13.71
-4.09
11.95
27.37
55.09
27.25
-2.49
4.36
-7.26
-40.42
-100.08
-160.8
-197.85
-134.32
-65.1
-15.17
-8.61
50.05
94.6
71.09
67.3
105.86
114.22
65.91
-23.33
-110.9
-181.87
-180.86
34.42
199.4
165.16
93.8
39.2
48.59
55.18
51.48
48.02
62.77
36.68
-0.56
-47.59
-99.7
-109.78
-97.17
-15.74
56.15
83.67
82.41
37.46
-16.78
-46.66
-81.44
-90.49
-58.02
-70.8
-31.94
44.34
9.09
-114.34
-213.02
-140.43
38.15
146.46
144.61
119.7
100.34
83.51
37.49
-23.28
-64.79
-82.36
-81.44
-102.72
-84.43
-16.12
46.78
73.61
76.71
47.02
83.63
139.74
91.97
24.5
-9.89
14.65
34.35
28.99
7.44
1.63
-7.27
7.15
26.78
22.13
-22.73
-77.1
-33.63
34.81
45.21
25.7
-2.86
-33.06
-53.02
-68.16
-57.17
-37.65
-25.47
2.31
49.13
65.03
-0.86
-148.42
-190.24
-38.12
84.06
87.32
13.88
-16.25
-7.75
49.38
82.3
47.92
16.92
-15.86
-44.46
-50.53
-23.52
53.24
27.83
-41.68
-46.97
-15.1
24.78
62.08
75.03
36.72
-34.55
-55.38
-25.17
7.15
-35.33
-1.69
104.33
60.52
-32
-91.06
-126.59
-83.57
-41.44
37.85
20.45
29.57
17.81
-8
12.46
28.09
39.91
57.16
-3.76
-72.37
-34.13
10.43
38.04
86.51
81.32
61.67
43.97
13.49
25.21
29.42
23.13
-7.58
-87.12
-110.38
-48.4
13.52
34.64
-2.46
-11.63
-3.03
15.84
21.04
-2.88
-20.47
-19.46
19.71
40.2
8.09
-36.57
-14.66
-32.53
-47.25
-66.98
-105.37
-83.79
14.28
76.63
86.62
84.12
90.22
56.56
13.95
11.44
-0.27
-17.36
-23.5
-39.07
-57.18
-45.61
-33.56
1.74
7.85
4.43
-52
-65.53
14.43
72.12
43.37
-11.48
-12.64
14.18
7.87
55.54
33.92
-47.33
-85.6
-64.44
3.09
44.83
82.11
76.31
-20.9
-105.76
-60.35
-12.64
-30.14
-74.21
-100.01
-57.93
52.18
75.85
45.44
80.76
101.64
53.87
1.68
-17.95
-18.12
2.72
6.83
-37.33
-64.22
-53.06
-24.02
-46.37
-30.22
26.74
19.43
17.52
79.81
140.79
108.16
79.72
71.18
29.81
-36.79
-94.31
-89.53
-73.45
-74.57
-47.86
-7.12
4.52
32.06
50.79
22.67
-36.06
-35.07
-63.16
-121.31
-157.26
-109.84
33.12
145.71
196.74
127.1
65.03
59.91
76.29
-11.63
-175.17
-261.6
-221.4
-123.75
44.53
142.02
183.53
169.06
124.8
89.59
42.28
-2.67
-4.72
-10.05
8.2
8.19
-29.94
-29.25
-27.81
-28.26
-1.94
6.52
-21.23
-10.93
-61.69
-147.02
-159.71
-78.12
85.28
117.72
76.31
23.4
-27.64
-63.08
-93.95
-99.17
-120.67
3.51
160.13
170.33
125.51
94.18
59.33
29.27
-3.95
-16
-6.78
15.17
-40.07
-93.17
-64.22
10.85
1.87
-42.1
-103.52
-67.09
-6.67
35.76
69.23
-1.64
-197.33
-332.97
-220.55
117.72
296.88
258.5
139.08
103.01
98.11
55.52
42.79
52.16
13.38
-24.78
-22.47
15.93
64.08
61.56
-4.46
-81.22
-82.51
-88.79
-169.88
-161.42
-13.22
80.19
69.06
58.47
57.76
68.02
64.2
47.28
13.89
10.4
3.81
-31.28
-25.33
-43.19
-47.56
3.43
48.38
34.72
-34.74
-116.31
-141.65
-113.2
-113.48
-160.68
-96.85
-1.17
14.19
21.45
-3.49
60.52
190.92
221.12
140.93
-12.55
-94.87
-22.21
54.62
38.2
-15
-51.85
-16.6
37.85
41.59
-9.27
-63.23
-74.2
-0.65
50.12
45.22
74.05
45.93
-63.58
-122.79
-24.45
73.62
91.21
88.44
78.19
16.77
-22.09
-120.92
-349.19
-411.05
-184.29
3.09
-14.73
71.85
172.16
203.11
190.78
160.3
98.04
8.42
-33.76
-22.23
10.85
55.5
-0.83
-50.08
24.23
102.87
11.78
-178.56
-316.05
-226.15
33.89
133.96
125.59
63.37
80.86
128.76
126.97
94.89
73.03
59.57
28.67
-25.12
-88.42
-136.96
-92.61
4.78
13.56
-31.51
-102.52
-103.09
-29.8
50.79
68.28
63.95
16.02
-78.51
-131.82
-122.32
-34.62
85.44
140.01
95.75
46.1
2.93
-7.25
-38.98
-47.67
-9.36
-23.2
-190.95
-295.78
-85.82
181.34
174.57
64.34
55.4
110.29
122.55
97.07
43.02
-6.1
-17.75
-7.36
-73.52
-203.54
-213.12
-83.15
69.59
165.59
199.17
106.37
40.98
87.89
116.56
35.69
-31.27
-66.11
-74.69
-48.74
-33.56
-29.91
-3.97
-36.45
-148.31
-242.03
-165.53
24.58
124.32
122.92
87.54
69.33
20.5
-38.11
-46.15
-15.76
-8.06
-53.82
-112.8
-57.67
52.04
108.4
98.32
36.33
-60.07
-174.3
-174.16
19.51
114.24
64.28
41.11
96.24
104.72
40.36
-80.53
-158.76
-114.32
-27.49
2.67
65.63
154.5
139.02
116.4
95.44
67.19
20.27
-54.42
-121.97
-192.13
-184.58
-130.67
-50.92
37.01
51.19
19.93
57.6
128.52
78.97
-31.59
-13.44
55.44
15.09
-58.15
-83.61
-99.27
-31.22
113.89
144.3
73.06
-16
-29.31
28.6
42.88
-0.7
-59.21
-148.85
-280.03
-177.69
114.27
237.51
177.57
79.2
69.05
53.61
30.12
25.75
57.79
-2.99
-148.35
-203.66
-86.6
22.71
74.91
40.36
0.53
82.48
88.1
59.17
37.99
-8.43
-83.57
-226.2
-261.93
-86.15
130.89
135.78
99.94
95.32
109.98
83.37
23.07
-22.01
-56.17
-61.36
-47.68
-114.25
-170.54
-115.81
38.5
127.95
76.35
29.06
123.45
156.29
91.63
50.49
57.3
43.43
5.53
-96.26
-237.01
-283.08
-182.22
-72.48
27.33
115.45
108.21
38.95
29.85
50.63
60.94
12.89
-46.69
-39.67
-30.13
-9.45
67.07
136.02
108.56
4.42
-73.84
-39.52
-55.46
-93.88
-37.43
2.13
35.66
59.05
2.07
-34.97
-18.96
-7.93
-44.88
-63.19
12.55
46.22
21.09
-26.22
-19.42
49.69
78.1
58.52
45.25
10.89
-15.46
-9.83
6.77
-33.36
-102.88
-218.06
-268.31
-162.42
119.75
286.77
223.15
81.84
-10.18
-86.8
-111.02
-226.33
-321.14
-48.27
212.85
238.66
166.02
69.09
62.35
65.84
28.92
5.15
19.29
-0.12
-147.27
-211.43
-106.03
43.25
86.89
109.93
110.95
99.01
90.13
72.41
27.43
-22.25
-0.96
-5.49
-88.41
-175.41
-208.66
-63.23
108.48
124.4
36.77
-85.53
-104.3
24.76
116.47
100.9
84.33
60.58
16
-33.33
-104.49
-107.18
-26.94
21.78
42.81
44.12
-1.45
-172.82
-344.92
-293.58
-86.54
80.02
255.62
248.24
156.9
123.09
88.58
59.87
61.05
87.7
85.57
31.98
-23.8
-78.82
-125.73
-208.31
-302.12
-455.95
-273.84
214.33
384.2
287.87
177.51
123.39
94.59
68.69
35.1
-11.21
-116.69
-186.12
-95.33
45.94
58.82
39.96
27.22
5.74
-10.21
-26.05
-5.43
20.54
17.99
-0.23
-1.31
25.25
39.8
4.28
-8.17
33.58
42.24
-53.71
-182.45
-132.44
-41.8
-129.38
-191.09
-90.73
-7.39
24.13
90.86
160.67
176.71
133.58
79.48
55.54
28.2
-1.75
6.73
8.37
-15.19
-120.42
-183.79
-96.56
-87.04
-185.53
-68.14
123.91
143.06
100.41
76.19
62.74
17.38
1.15
14.62
-5.92
-63.94
-84.48
-52.06
-9.57
82.14
140.68
114.63
75.77
43.35
13.1
-2.62
2.27
-44.35
-134.97
-123.51
-26.3
40.03
67.61
38.52
45.93
92.33
84.46
35.83
-66.1
-109.79
-100.21
-35.63
4.27
-29.01
1.04
72.47
8.5
-61.67
-115.18
-123.86
-92.36
26.36
122.28
116.95
80.72
59.35
40.27
23.66
1.92
21.59
30.39
-35.61
-112.6
-127.09
-84.33
-14.92
75.04
38.5
-14.93
-23
-36.32
-44.76
-130.01
-161.59
-28.52
153.92
152.77
101.33
72.98
51.32
14.66
-17.16
13.49
28.56
-28.65
-101.37
-77.82
23.03
81.3
102.55
89.61
53.73
23.64
11.69
-18.91
-31.91
-0.55
17.19
34.59
51.64
36.25
13.96
6.4
0.71
-25.35
-77.2
-102.71
-87.84
-37.68
-39.17
-114.73
-131.05
-47.56
-92.58
-140.27
-15.08
149.5
173.1
135.38
97.82
64.6
28.78
4.48
-79.92
-183.13
-217.89
-98.25
24.43
103.25
116.44
101.3
38.02
5.45
5.42
55.93
128.68
119.8
74.43
33.94
36.44
42.52
10.64
-68.29
-52.19
-0.52
2.5
-8.51
-16.67
-2.69
-20.41
-27.22
-39.74
-20.69
20.88
21.61
-13.22
6.6
21.05
-24.78
-94.6
-165.7
-163.23
-114.17
-126.36
-97.85
30.14
121.88
160.93
97.96
22
26.09
121.52
78.04
-16.26
-6.89
74.1
87.8
38.96
-22.26
-66.23
-8.24
2.04
-38.21
-75.52
-97.93
-50.89
-8.51
52.83
67.52
27.84
56.58
76.05
22.87
-51.83
-76.27
-95.06
-28.79
11.08
1.03
39.73
70.3
101.18
93.44
29.54
-52.64
-120.85
-118.16
-167.01
-203.29
-94.2
76.35
156.55
152
87.77
67.08
90.77
105.45
89.66
67.02
37.92
5.08
-24.37
-61.51
-140.02
-249.81
-187.52
21.09
159.82
166.85
50.68
-99.66
-166.43
-80.97
26.77
16.74
19.84
103.91
105.63
56.82
44.4
62.07
68.14
71.98
1.21
-57.88
-61.57
-72.04
-71.92
-60.69
-7.91
20.37
24.15
42.44
48.73
39.79
27.74
7.71
-30.7
-70.4
-135.23
-164.51
-73.01
-56.23
-11.29
13.66
18.94
22.87
29.43
30.75
81.86
127.2
95.23
45.45
13.44
-4.15
4.54
-51.66
-137.07
-149.75
-141.41
-109.67
6.44
110.61
127.61
57.04
18.48
20.54
34.01
45.83
39.64
41.92
18.81
-33.65
-59.56
-112.77
-132.88
-57.73
-4.13
67.86
98.07
85.31
47.25
2.13
-15.8
3.08
9.39
-40.77
-63.28
-41.51
27.65
86.43
52.58
7.51
-82.67
-147.46
-118.04
-61.94
25.04
102.7
132.71
84.83
35.07
29.09
42.84
48.3
26.39
24.48
25.26
1.17
-82.95
-232.86
-289.15
-154.15
8.97
51.9
73.98
85.81
95.31
98.61
78.22
-0.91
-58.71
-25.12
24.91
44.07
-3.16
-75.84
-88.67
4.39
70.9
77.43
39.12
26.34
43.25
-4.1
-57.11
31.61
88.95
105.17
111.77
63.8
6.87
-63.57
-97.35
-100.41
-49.34
13.39
6.64
-43.24
-44.37
29.27
33.81
-10.73
-9.52
-42.6
-64.83
15.32
90.84
26.84
-103.99
-141.09
-29.02
60.35
42.08
27.55
46.79
70.44
15.92
-113.22
-206.68
-164.46
-48.94
37.27
147.26
171.88
105.09
56.26
21.86
2.76
-32.12
-119.16
-176.76
-131.44
52.25
201.73
116.1
23.59
1.23
12.45
26.01
32.79
42.51
-23.91
-142
-198.79
-198.47
-52.54
126.78
160.77
132.49
121.26
80.4
60.54
48.27
33.06
17.57
-6.83
-35
-57.45
-59.61
-42.45
13.15
40.36
-37.14
-102.37
-85.32
-92.99
-86.42
-0.68
89.22
78.07
2.34
-7.16
25.53
69.87
66.1
11.57
-70.94
-114.34
-114.68
-187.43
-160.38
-79.1
21.37
42.45
45.22
82.99
79.85
81.65
81.6
68.45
54.74
-10.59
-67.33
-4.47
49.41
48.02
37.17
29.63
-16.12
-57.2
-13.33
-17.95
-88.45
-88.46
15.88
106.01
111.52
96.46
78.9
57.25
40.73
33.05
-1.34
-60.47
-64.47
-44.58
-33.18
-6.95
-5.35
-13.75
18.54
38.86
-31.72
-108.83
-107.2
-21.97
44.46
-9.75
-104.45
-130.95
-7.64
92.11
91.42
92.26
71.23
38.97
44.31
53.47
32.75
11.53
-12.58
-84.92
-145.92
-116.16
-69.42
-125.77
-94.66
7.32
47.57
84.36
153.05
147.2
31.11
-121.98
-91.31
64.87
124.53
121.96
94.67
48.3
1.84
-53.73
-98.2
-113.45
-123.6
-106.8
-50.76
36.54
19.95
-38.14
42.07
104.84
105.17
64.68
-62.94
-215.35
-247.81
-30.48
160.28
176.79
136.53
121.43
98.03
17.05
-35.03
-55.44
-14.55
-4.4
-40.55
-104.69
-120.06
-60.17
27.51
95.7
114.81
111.12
74.03
54.4
50.36
35.06
-19.24
-147.91
-304.86
-310.64
-98.05
82.54
101.12
99.86
83.01
31.63
57.12
109.52
88.99
57.3
37.55
8.92
-42.86
-158.46
-293.94
-224.25
45.65
197.98
182.37
134.7
95.52
73.57
55.54
27.81
-4.78
-35.79
-22.45
-28.7
-78.47
-192.26
-238.75
-99.05
38.52
98.97
104.04
88.57
29.5
-42.6
-24.09
27.67
-24.52
-149.76
-204.19
-99.93
78.33
158.93
97.3
51.18
67.72
92.78
79
10.08
-49.48
-6.47
-7.6
-47.69
-27.56
35.08
-14.78
-37.36
55.39
43.36
-13.9
28.65
85.53
85.97
2.45
-77.4
-54.75
-2.62
61.62
43.82
19.39
29.2
13.75
-54.59
-146.12
-154.57
4.84
134.17
120.77
54.95
2.86
-33.34
-36.44
-58.8
-68.28
-69.57
-58.44
-79.06
-186.05
-234.84
-57.4
206.03
182.49
99.09
51.02
18.66
-53.34
-124.67
-46.67
87.42
112.23
48.22
81.11
48.55
10.45
-18.59
-41.97
-7.06
53.42
77.58
36.97
-20.24
-32.56
48.9
83.74
54.87
33.59
-11.45
-134.85
-267.97
-193.62
-36.93
-0.83
44.33
115.35
112.17
93.71
97.56
77.37
54.53
59.49
37.8
14.4
-42.85
-108.23
-134.31
-90.15
39.31
101.86
13.28
-12.74
-10.85
-54.97
-107.94
-108.91
-28.02
14.1
-57.24
-120.68
-89.57
24.78
91.4
136.02
166.4
122.73
69.99
41.73
8.03
-9.14
-9.95
-70.11
-98.63
-93.12
-219.49
-162.25
0.63
40.26
102.47
183.57
160.45
56.85
-2.31
-3.83
-10.78
-31.39
-125.84
-155.54
-33.08
81.38
148.13
158.22
112.14
59.61
14.19
-39.25
-80.98
-103.26
-126.68
-98.84
-97.18
-96.08
33.09
132.3
50.71
0.09
81.07
100.03
80.45
92.15
68.86
37.7
2.85
-16.88
-32.96
-114.88
-236.65
-189.66
19.65
143.62
86.66
27.85
-7.82
-26.5
-35.35
-83.88
-44.37
-89.68
-184.87
-37.66
206.34
197.32
74.53
0.7
-15.22
-20.11
0.31
36.74
39.76
42.51
13.99
14.52
43.3
48.2
34.8
22.26
16.06
-10.65
-40.22
-71.77
-132.98
-220.1
-193.43
-65.71
108.36
143.44
113.07
89.16
89.44
101.96
96.06
79
25.98
-47.98
-141.88
-205.45
-52.95
99.35
70.31
-35.56
-78.48
-34.03
-16.93
11.35
39.66
44.39
40.21
64.04
66.49
39.79
-17.48
-108.62
-150.51
-217.37
-150.92
64.2
149.01
130.89
90.5
60.33
37.36
35.95
19.44
23.02
-0.48
-70.13
-156.76
-199.35
-111.49
65.21
143.58
82.03
23.65
42.79
72.43
54.13
41.88
35.46
28.22
25.05
-25.71
-71.44
-67.24
-28.73
-33.62
-43.01
-62.37
-47.67
-11.34
48.36
91.39
77.82
0.21
-72.33
-76.02
-16.54
60.42
94.76
78.88
49.51
32.23
7.69
-52.89
-74.39
-36.03
14.39
16.61
-32.29
-54.68
-16.67
-6.54
-29.43
-39.23
-69.89
-62.1
-11.58
-37.01
-82.15
-35.78
-5.38
-9.08
52.81
56.66
120.69
196.43
175.47
95.25
35.96
17.88
-18.19
-75.63
-111.25
-53.38
-10.35
-44.74
-48.42
-11.45
-31.1
-115.01
-70.63
-21.56
-8.75
84.57
162.86
141.54
89.39
39.44
13.79
-22.51
-123.17
-214.96
-172.55
-137.73
-53.57
26.32
151.17
177.93
151.46
122.03
53.53
-64.1
-103.84
-50.47
7.1
68.98
67.99
15.73
-56.87
-116.7
-81.54
-13.16
-55.54
-164.26
-93.96
58.35
133.24
176.02
158.67
118.21
59.97
-20.13
-79.33
-100.74
-108.08
-17.95
113.74
165.2
168.36
99.89
21.14
-34.48
-73.08
-95.72
-74.99
-39.94
-7.65
-29.63
-32.62
1.42
-4.74
-13.31
31.89
44.59
6.14
-12.07
-0.51
13.8
40.45
58.6
15.01
-47.66
-69.48
-57.18
-28.87
-16.3
2.66
0.25
-1.75
10.37
-58.03
-85.09
-2.18
2.22
5.93
14.26
15.04
9.63
3.13
4.7
7.94
7.32
4.57
1.47
0.36
-3.07
-5.37
-5.45
-10.27
-10
-8.69
-8.95
-7.07
-1.49
1.56
4.01
5.39
6.94
11.02
15.34
17.1
18.07
15.35
13.56
0.36
-10.32
-11.91
-9.08
-9.76
-11.79
-11.94
-7.54
-5.55
-8.08
-7.84
-1.58
5.75
8.94
8.46
8.09
10.89
10.71
5.33
1.71
2.72
1.66
-1.75
-6.84
-9.04
-8.8
-10.07
-9.61
-9.55
-9.29
-4.76
0.16
3.53
5.08
6.06
9.62
9.97
11.29
11.21
8.02
4.47
1.41
0.32
-3.27
-5.79
-6.31
-8.68
-13.14
-15.19
-10.38
-8.59
-4.3
4.28
9.36
8.13
3.06
4.31
6.53
7.89
4.42
1.79
1.41
-1.33
-2.71
-4.96
-7.94
-9.58
-15.13
-15.16
-12.35
-8.86
-6.07
-1.47
1.6
6.56
10.53
12.99
12.86
11.53
9.43
7.8
2.47
-1.25
-2.81
-2.61
-7.15
-6.35
-7.35
-9.37
-8.27
-5.92
-2.48
2.02
1.57
7.13
10.62
12.48
16.66
21.44
27.13
21.8
8.34
4.38
-2.87
-16.65
-20.63
-17.26
-14
-14.35
-15.66
-15.77
-11.24
-6.33
-0.91
4.13
8.36
10.57
14.79
13.21
9.77
10.84
9.7
8.14
-2.33
-7.94
-7.35
-9.65
-11.62
-11.4
-9.87
-6.11
-1.83
1.44
1.37
-0.59
-2.98
0.31
6.56
9.05
8.87
9.32
5.87
5.28
0.33
-3.53
-6.57
-8.17
-5.92
-5.99
-5.13
-7.04
-11.08
-8.93
-4.04
-1.97
1.78
2.64
4.96
9.72
10.82
11.68
10.89
9.39
5.55
3.84
-1.4
-6.46
-11.35
-14.51
-12.94
-12.22
-11.9
-5.61
-1.22
-0.05
-0.05
2.07
4.84
6.97
11.79
14.3
12.28
10.84
9.05
0.32
-8.89
-10.78
-10.39
-10.41
-13.41
-11.17
-10.86
-8.53
-2.97
0.56
-0.17
-5.28
-2.41
4.64
9.57
12.41
8.45
7
6.41
5.35
1.2
-4.08
0.72
-2.14
-7.79
-17.96
-15.39
-9.59
-11.73
-12
-3.45
4.03
4.2
2.56
3.75
9.46
12.14
10.46
5.08
-0.24
-1.98
-7.27
-12.12
-10.03
-9.04
-8.73
-8.14
-7.34
-5.33
-2.12
-0.1
0.49
3.36
7.6
10.77
12.02
10.87
8.37
8.69
8.53
6.19
2.31
0.47
-4.76
-8.15
-11.99
-12.36
-9.36
-5.02
-1.81
-0.77
2.65
6.26
3.04
4.84
8.26
10.77
13.22
13.55
7.5
3.4
-0.83
-2.39
-5.09
-7.38
-5.16
-8.33
-9.68
-8.23
-8.15
-5.62
-0.23
2.94
6.7
9.29
10.53
14.67
12.15
7.87
6.99
6.44
2.06
-4.43
-5.44
-4.68
-4.5
-4.46
-6.88
-10.03
-16.55
-19.1
-9.52
2.36
8.5
14.17
21.22
17.29
6.85
-0.64
2.12
2.78
1.66
-1.29
0.89
-1.07
-8.3
-12.58
-14.34
-16.94
-17.51
-13.57
-10.4
-6.36
-3.04
1.29
5.83
7.54
9.88
9.47
7.46
4.28
2.54
1.17
-3.41
-3.73
-8.25
-12.83
-9.89
-8.08
-10.53
-6.26
-4
-3.03
-2.82
0.24
2.81
7.14
11.49
12.51
9.52
9.2
8.54
9
4.46
-2.23
-3.37
-5.83
-13.23
-16.12
-14.78
-10.36
-9.15
-4.93
0.25
2.18
3.85
5.62
9.3
11.84
11.11
12.99
11.69
9.16
4.87
-0.12
-7.6
-7.64
-6.06
-7.01
-3.39
-4.13
-5.63
-1.28
3.12
7.27
10.61
8.43
-1.79
3.11
8.99
12.74
12.38
10.54
8.03
4.33
1.4
1.03
-5.13
-6.35
-5.91
-4.86
-2.25
2.5
7.66
11.08
12.84
13.69
18.41
22.11
20.68
18.24
18.8
15.37
12.55
9.21
4.27
-2.52
-5.3
-7.05
-11.44
-13.23
-14.22
-11.66
-13.05
-13.85
-8.85
-2.95
-0.84
2.12
6.43
5.68
-2.46
-3.73
-4.2
-3.57
-6.62
-6.88
-7.55
-10.43
-12.24
-14.63
-13.31
-10.29
-9.59
-5.24
-2.79
0.92
2.17
4.92
4.35
7.89
11.29
11.64
8.04
5.88
1.06
-2.01
-4.47
-7.01
-9.32
-13.8
-16.28
-15.14
-10.91
-6.45
-9.45
-7.56
-6.09
-12
-7.78
-7.16
-4.46
2.69
18.25
12.83
-0.52
-8.08
-19.78
-35.33
-26.8
-6.71
-26.81
-29.27
-18.65
-7.15
-1.14
7.28
17.43
18.25
-22.16
-50.14
-41.55
-33.73
-39.31
-25.45
-22.67
-8.32
13.89
13.03
26.32
30.21
16.48
4.06
0.91
-41.45
-54.04
-57.89
-46.71
11.03
53.47
54.71
60.01
58.73
42.43
24.17
13.77
21.49
12.21
-6.32
16.07
23.06
23.25
9.01
-16.4
-13.27
7.12
10.47
16.62
16.74
15.15
17.7
24.23
15.03
-3.59
-14.2
-15.46
-25.4
-32.11
-30.8
-2.77
22.72
11.61
-29.28
-94.08
-110.31
-115.88
-82.63
-1.55
47.53
72.94
60.53
56.24
53.39
41
34.47
13.41
-15.52
-33.5
2.1
14.98
10.38
0.78
-13.8
-7.97
-32.95
-20.55
-6.6
4.49
-23.12
-29.72
1.01
40
51.82
64.38
65.8
40.29
22.59
-11.13
-58.43
-76.62
-75.66
-86.17
-87.62
-12.17
62.59
75.38
39.26
3.03
-1.91
-6.78
10.46
28.54
46.04
29.98
-59.27
-68.88
-62.13
-75.95
-24.75
37.34
54.9
21.34
32.59
48.8
22.7
-40.45
-33.29
26.83
89.9
55.73
-12.55
24.29
10.19
-12.92
8.85
7.67
-23.89
-37.32
2.52
42.79
20.47
4.61
9.36
-10.55
4.69
12.25
4.32
8.66
28.99
9.23
-27.61
-40.65
-9.59
-42.93
-23.55
29.33
69.7
39.88
-4.34
-18.91
-34.59
-47.06
-35.72
-77.08
-161.85
-137.62
40.67
158.93
118.81
36.59
30.39
43.47
35.7
52.19
53.91
42.33
10.76
0.67
12.11
-31.31
-48.07
-18.26
4.65
-10.74
-24.25
2.56
7.63
-28.55
-52.59
-38.82
4.24
29.72
9.19
-44.42
-88.72
-57.81
-2.68
46.5
75.92
49.68
13.22
5.07
4.26
-34.57
-103.31
-132.64
-96.29
-21.63
53.24
65.5
39.89
26.32
28.9
13.42
-29.05
-7.31
38.93
16.1
-20.48
-56.6
-64.96
-43.04
2.55
-35.23
-2.89
76.85
40.11
-13.8
-27.7
-21.34
-4.04
-19.74
-39.18
-7.51
35.91
25.33
-0.7
-6.84
12.59
-11.17
11.03
-7.75
-123.29
-177.15
-92.46
29.96
62.33
43.78
68.85
52.87
15.67
31.1
37.4
-2.64
-60.33
-72.74
32.04
57.76
-13.06
-53.61
-20.65
51.54
81.56
-2.14
-79.92
-68.96
-37.73
59.82
60.07
4.1
-23.68
-23.62
-30.66
4.3
42.79
-7.15
-44.35
-35.48
-33.31
-18.74
42.59
72.11
36.27
7.71
24.79
48.85
57.33
10.08
-35.33
-60.69
-119.35
-106.49
0.56
102.76
56.38
13.5
-25.22
-71.15
-45.9
18.49
17.03
50.89
65.35
8.6
-50.24
-107.29
-111.04
-24.98
1.46
-64.75
-61.5
-21.72
17.71
16.67
-15.62
-112.72
-154.49
-87.72
-51.88
-108.98
-133.78
-33.34
107.65
207.69
178.75
130.43
62.12
-55.28
-13.92
54.15
81.87
49.19
10.88
17.9
44.39
37.7
42.01
28.31
29.1
61.54
17.3
-70.91
-61.39
-13.3
-30.23
-74.01
-7.06
-19.96
-73.07
-96.97
-48.83
32.43
115.2
109.48
75.08
80.35
85.86
62.2
-25.69
-61.31
-101.8
-156.64
-98.81
-6.14
-10.79
-62
-107.29
-170.83
-211.74
-160.68
1.73
125.37
189.04
150.28
94.6
68.64
61.7
25.49
21.95
24.45
-12.05
-52.47
-58.32
-99.22
-173.97
-117.9
75.65
167.46
120.79
67.32
31.11
-11.78
-24.55
-71.74
-172.98
-173.28
12.61
179.46
45.46
-148.97
-67.42
114.16
184.18
174.24
143.83
115.65
67.26
1.61
-51.78
-3.77
27.31
-72.09
-188.48
-78.24
76.6
78.34
35.26
12.43
14.8
-13.03
-60.46
-106.83
-82.66
-7.27
2.95
0.33
-24.59
-35.84
-45.37
-114.17
-176.24
-207.28
-111.78
-54.44
46.41
181.86
199.52
92
-3.35
8.47
-73.86
-143.15
-84.18
20.67
147.19
130.5
-25.64
-62.38
48.69
131.79
116.09
65.41
-94.13
-315.07
-280.63
-10.97
209.7
194.26
123.04
82.5
80.76
88.51
54.57
13.72
-50.32
-90.57
-40.46
-127.15
-230.52
-76.1
101.98
127.89
79.64
19.41
-47.57
-48.62
1.45
57.73
63.32
49.23
31.39
21.06
-42.18
-101.65
-67.75
31.89
46.38
-5.92
-75.79
-99.62
-111.73
-207.14
-288.94
-65.4
154.08
89.11
31.39
102.59
122.89
66.1
-107.61
-242.31
-231.64
-105.87
-26.17
4.93
156.49
252.82
189.29
105.7
105.01
91.19
31.64
-4.61
45.3
55.22
35.32
36.64
-13.32
-140.79
-151.66
6.68
85.85
59.54
9.89
-4.98
6.18
31.14
33.4
17.15
-8.33
-7.6
-14.57
-56.78
-31.2
18.78
-35.61
-286.37
-332.21
12.08
145.09
58.05
-157.3
-241.31
-103.42
32.16
105.85
123.69
143.33
172.86
119.84
14.82
-53.1
-18.2
65.37
82.99
61.36
75.15
63.51
28.66
-80.71
-192.03
-228.4
-174.01
-125.05
-81.9
55.92
163.79
212.69
201.06
149.77
118.76
74.05
26.45
-20.31
-97.37
-75.41
38.93
1.74
-139.26
-287.18
-248.07
24.39
215.62
233.18
150.86
101.38
63.55
12.77
11.38
38.1
-13.03
-186.33
-440.7
-439.99
-99.54
84.5
-100.44
-268.4
-66.6
148.65
261.96
240.84
179.99
146.62
116.72
85.24
8.07
-98.59
-183.74
-148.81
-53.15
80.87
112.19
23.25
-72.58
-2.09
34.38
19.51
-59.13
-155.57
-165.93
3.09
144.45
80.61
-12.81
73.56
138.63
68.84
9.77
-44.02
-55.96
-83.19
-48.56
10.45
49.13
33.98
-13.6
14.51
47.52
54.2
29.95
9.56
-31.44
-98.19
-114.42
-45.61
43.87
-37.26
-198.08
-425.1
-605.17
-424.43
109.21
363.39
380.34
270.66
163.68
125.6
104.75
39.29
39.29
100.68
73.33
-3.25
-38.3
35.68
46.27
23.91
39.44
47.47
-27.43
-231.41
-296.96
-174.83
-156.98
-20.47
126.11
80.07
26.06
67.16
162.58
173.16
80.58
-31.16
-57.93
19.49
-41.03
-230.73
-231.03
77.38
206
141.42
77.9
39.2
18.25
-1.28
-93.29
-300.29
-463.46
-336.86
24.83
186.69
157.77
135.25
107.19
34.71
-43.35
-126.42
-243.56
-299.9
-50.5
193.24
250.84
125.8
51.22
46.45
17.7
-95
-157.14
-102.31
21.68
2.14
-70.09
-44.49
-63.42
-96.87
83.62
243.73
237.17
193.23
129.5
72.99
1.07
-122.11
-154.37
-89.31
-106.16
46.31
175.17
153.97
93.43
48.8
11.79
-21.07
-38.1
-36.59
-122.89
-154.4
-17.18
73.72
98.43
57.08
-62.05
-182.91
-169.27
-90.33
-66.07
-88.01
-44
19.39
-21.65
-59.5
24.23
96.77
122.69
106.53
58.82
29.33
36.31
47.94
-6.17
-80.28
-83.67
16.23
-16.15
-168.77
-303.83
-232.49
-65.94
-38.11
8.33
144.36
223.09
161.68
103.82
124.28
89.82
49.19
12.14
-50.68
-159.92
-145.78
-56.69
-23.42
-48.85
-18.88
11.44
86.48
118.26
74.78
45.09
-0.13
-21
12.21
4.31
-77.97
-155.55
-140.86
-36.13
14.41
-110.98
-107.97
-32.68
-178.26
-238
-26.45
120.95
214.24
226.13
192.66
102.91
60.11
98.21
126.02
47.67
-65.59
-118.63
-127.76
-184.96
-320.75
-135.63
192.16
239.75
106.89
-54.28
-91.88
-91.92
-74.17
-55.19
54.25
37.57
-97.03
-41.12
69.8
129.84
130.03
107.82
50.73
-27.26
-67.33
-47.22
-6.99
9.73
57.8
-22.62
-67.79
-100.27
-106.06
-27.95
10.87
19.01
-22
-25.79
8.79
-81.59
-287.14
-327.07
-90.69
128.92
103.67
16.29
-79.39
53.12
251.31
231.62
162.71
104.42
17.67
-105.03
-218.21
-93.94
105.32
156.84
39.18
-70.85
-18.13
-18.67
-17.8
49.02
-7.29
-116.78
-70.3
-84
-238.3
-128.6
2.87
-79.27
-45.52
0.6
-8.88
-35.62
16.22
25.38
110.61
117.57
80.34
70.29
74.11
73.17
24.4
-52.95
-142.16
-120.14
-51.92
64.91
144.23
136.78
60.99
-46
-144.51
-134.25
-37.3
11
-5.62
-44.06
-121.29
-150.28
-110.88
23.35
134
173.5
190.55
150.48
60.41
13.33
17.22
-11.29
-57.46
-59.88
-43.95
-70.73
-172.22
-199.79
-48.46
30.47
93.5
101.77
25.23
-38.73
-34.72
-74.28
-155.12
-164.68
-103.06
-97.27
-38.15
-82.26
-152.19
47.29
176.33
118.17
107.77
67.16
14.44
-56.93
-47.86
-32.4
38.47
21.13
-70.52
-57.56
79
39.43
-40.34
21.34
46.4
19.18
104.27
119.93
67.8
35.01
13.36
-4.37
-128.68
-213.18
-146.98
-88.96
29.19
170.28
178.73
80.88
-66.7
-101.2
-21.25
29.21
37.68
-28.54
-97.36
-81.29
-50.31
-6.46
-65.75
-109.42
-45.21
78.93
133.08
104.1
36.03
-19.64
-37.93
-34.8
-34.56
-19.98
-23.17
-15.91
-78.54
-251.51
-307.92
-215.95
10.01
183.45
209.15
151.13
78.4
-26.11
-67.1
-24.94
22.23
53.86
59.59
24.23
-17.61
-51.9
-125.7
-178.08
-56.6
64.58
134.37
133.76
92.81
11.98
-91.85
-227.56
-205.94
34.16
198.28
160.14
102.38
39.18
16.73
-4.99
-102.43
-233.35
-255.47
-103.73
0.52
19.45
20.11
22.76
140.05
193.6
124.47
36.84
76.94
129.74
119.81
65.87
-15.14
-123.52
-137.1
-60.22
-12.84
-8.74
18.54
15.63
-35.58
-62.09
-104.58
-118.37
-68.21
-131.34
-127.88
22.83
109.35
83.53
40.39
-13.71
-18.53
0.07
-144.97
-295.31
-193.19
-37.92
83.36
108.19
66.75
24.75
-0.52
-15.85
-5.43
-25.74
-35.84
-38.58
14.58
81.28
128.86
169.1
91.67
-46.64
-77.96
20.77
73.14
54.18
5.73
-79.89
-155.1
-105.67
-103.83
-90.15
26.79
-21.29
-17.77
103.41
123.11
10.62
-45.96
-31.36
61.69
67.27
27.78
-19.35
-50.64
-68.12
-50.16
23.89
65.32
67.45
24.38
-22.65
-15.21
18.18
10.83
-75.42
-235.17
-313.51
-309.27
-199.95
-1.87
194.32
223.18
181.78
49.46
-18.24
-19.87
-32.04
-136.42
-323.36
-285.99
35.4
251.47
266.9
234.77
172.71
78.18
15.11
-24.06
-34.98
-36.62
-31.85
-19.52
-146.7
-246.19
-41.94
136.3
69.98
32.6
64.04
77.53
73.23
44.84
-158.65
-359.76
-226.73
110.46
247.56
204.71
165.15
50.56
-31.59
-91.53
-188.08
-314.53
-302.43
-92.7
116.64
185.28
152.96
70.42
-5.6
22.69
27.72
26.36
27.25
-65.72
-248.26
-293.8
-115.59
122.23
242.89
183.54
93.62
52.85
15.52
14.59
24.36
7.93
16.31
-8.24
-50.57
-162.91
-180.78
-106.33
-29.08
85.54
83.8
72.24
49.92
14.37
-7.33
-29.14
-49.86
-84.53
-100.99
-128.43
-151.19
-58.31
41.67
40.73
-1.88
-62.82
-35.67
75.58
138.82
149.69
99.32
-20.64
-189.36
-338.97
-240.51
-4.54
167.19
217.01
155.72
120.89
43.27
-76.76
-58.61
39
42.52
8.57
30.08
40.81
28.16
20.85
13.44
-4.68
28.25
-41.47
-154.62
-231.12
-257.5
-131.46
65.83
178.32
167.46
88.35
61.99
11.85
-88.16
-117.3
-49.37
10.44
-18.39
-6.76
72.67
62.15
-42.04
-118.54
-85.64
1.5
-28.45
-25.52
-11.03
-65.69
-144.82
-123.29
52.05
161.17
138.54
93.54
45.34
19
28.18
20.54
-2.35
14.56
15.15
9.12
-22.17
19.03
38.42
8
16.27
-37.7
-91.88
-108.4
-115.6
-209.53
-250.26
-77.22
80.13
127.79
66.27
10.05
8.12
37.38
86.65
96.01
63.48
-1.65
-73.27
-203.42
-400.87
-248.6
61.41
252.52
209.99
124.41
96.76
102.47
101.95
80.99
38.03
-48.52
-58.01
-28.15
-31.05
-26.6
-16.9
-52.83
-54.75
-18.09
-17.19
-55.18
-76.37
-115.69
-99.07
-3.98
34.67
-4.42
-82.62
0.68
143.32
184.17
132.6
73.53
18.57
-42.31
-16.78
-15.09
-60.72
-1.75
25.34
-1.94
-40.43
-82.99
-84.63
-44.61
-9.09
-14.43
-41.33
-100.31
-159.46
-73.9
38.49
92.7
84.69
31.85
6.11
26.88
28.74
6.06
-9.69
-37.73
-100.77
-148.25
-124.7
-69.41
-28.74
-35.7
-25.55
86.62
136.94
146.03
98.28
3.13
-66.48
-11.27
4.8
16.84
17.22
-20.47
-85.73
-114.62
-110.42
-31.94
67.52
120
74.05
5.46
19.5
40.18
42.45
19.2
-34.61
-68.67
-39.91
-2.66
-9.41
-32.36
-84.21
-90.54
-89.06
-141.13
-113.06
-69.78
-67.04
8.42
131.48
215.88
164.08
64.96
54.48
115.34
127.4
63.78
-16.52
-79.17
-88.7
-42.64
-16.51
-29.88
-101.3
-106.51
-2.83
26.77
29.56
36.61
38.95
28.91
39.82
-41.36
-163.64
-144.9
-14.63
87.48
83.67
38.27
-15.26
-41.34
-18.11
-46.24
-84.72
-86.02
-96.04
-37.07
64.34
63.28
12.03
-68.34
-142.47
-88.74
-63.55
-59.02
-48.15
2.86
79.14
176.47
129.97
99.33
96.41
11.08
-19.25
17.3
48.48
48.06
23.9
-22.5
-58.2
-72.4
-64.25
-78.78
-101.33
-35.02
-5.53
3.59
31.46
17.57
-20.71
-6.47
15.32
54.07
72.37
-27.72
-139.71
-111.81
22.8
95.02
80.19
93.07
104
58.91
-11.03
-25.65
-1.71
6.16
-10.26
-16.08
13.95
-8.35
-104.14
-218.11
-150.98
11.28
95.71
74.07
-0.03
-83.04
-226.7
-318.65
-80.83
156.1
207.16
104.63
33.98
64.68
62.5
-17.9
-95.23
-64.39
-48.38
38.38
107.83
82.76
52.09
32.65
16.52
0.7
-78.83
-192.31
-207.47
-82.2
34.17
121.47
114.13
92.75
79.81
75.55
56.26
-6.79
-60.33
-58.71
-27.63
11.03
-11.09
-66.52
-129.69
-178.67
-168.69
-130.78
14.02
147.96
112.21
82.92
101.87
119.1
75.13
16.68
-68.83
-155.61
-121.1
-20.87
-3.69
-34.49
58.06
109.29
82.39
53.93
26.78
-29.7
-58.7
-50.69
-55.98
-34.9
-79.87
-25.06
30.74
37.6
50.33
13.99
-6.25
-14.15
-25.67
-125.38
-228.97
-127.29
91.13
243.87
210.9
146.68
94.42
62.22
39.16
29.69
17.96
-12.49
-61.34
-142.04
-123.39
57.86
133.27
-6.05
-180.23
-243.12
-191.39
-64.28
50.9
85.9
61.28
17
-63.13
-106.31
-58.17
30.55
35.7
-113.84
-272.29
-164.74
43.31
203.26
265.08
198.26
128.1
79.56
13.54
0.35
20.39
4.19
-38.69
-96.25
-202.13
-152.57
53.18
167.43
155.69
102.32
5.96
-76.58
-137.86
-123.4
-18.32
46.67
86.26
84.19
40.06
23.91
52.64
50.15
5.37
-13.96
-28.26
-99.12
-61.32
16.31
25.56
8
29.08
77.54
59.89
11.53
-83.03
-215.9
-242.46
-162.19
-57.72
38.49
116.21
110.11
14.51
-27.01
-42.66
-39.67
-27.56
-5.58
-6.94
-44.85
-11.93
24.34
56.02
59.06
37.9
-16.89
-31.29
36.63
76.14
63.44
11.18
27.97
39.83
-0.52
-102.35
-242.99
-284.33
-135.41
86.68
164.73
142.29
80.12
36.12
64.57
70.46
45.27
13.2
-29.69
-87.05
-258.39
-284.33
-75.88
26.88
36.33
20.15
44.67
90.49
123.01
114.14
78.18
24.83
-88.04
-167.61
-65.19
52.11
56.94
24.28
10.66
-8.09
-15.21
-13.88
20.09
13.68
-32.86
-22.74
37.78
75.44
46.07
16.58
-29.53
-100.01
-112.38
-70.18
32.65
74.25
103.01
61.83
-30.18
-122.91
-109.97
-100.01
-24.82
34.84
-52.52
-85.47
1.14
71.27
83.82
52.76
-17.79
-69.27
-59.23
30.04
80.66
78.23
5.45
-21.56
42.17
79.14
71.7
35.06
-44.62
-42.44
-0.29
2.08
-35.43
-55.4
-30.27
10.51
19.38
1.83
19.35
7.74
-8.71
42.22
32.22
-71.84
-224.61
-285.49
-117.35
56.86
105.34
95.13
139.34
152.56
103.88
65
31.05
3.66
-56.59
-111.19
-120.61
-95.3
-27.65
-21.93
-39.12
8.63
65.17
92.45
120.25
88.5
52.6
50.67
1.42
-95.06
-126.01
-82.48
-20.26
57.06
96.62
69.34
0.83
-54.73
-90.39
-107.96
-95.66
-45.14
-25.11
-32.18
-64.86
-44.8
31.23
99.16
109.25
82.17
41.07
8.11
5.76
-31.28
-127.71
-152.6
-62.79
33.57
99.67
125.9
70.59
51.37
84.29
77.81
30.45
-31.78
-90.05
-161.2
-217.22
-122.39
27.12
98.08
69.81
-67.31
-186.37
-130.24
48.31
155.87
178.41
160.75
85.63
33.33
3.09
-80.48
-125.58
-85.58
-31.4
55.73
73.62
71.72
77.33
52.92
15.8
-9.18
-5.74
31.06
21.18
-52.29
-156.45
-142.2
-83.57
-55.75
-34.89
-89.65
-17.52
131.36
128.5
58.07
55.56
45.53
37.04
23.93
-0.91
-44.99
-78.83
-67.99
-51.83
-77.42
-90.31
4.14
91.6
122.49
63.65
15.3
-64.17
-162.74
-102.07
7
3.71
5.81
25.23
14.95
66.46
74.82
57.56
38.6
-1.14
7.72
49.72
40.67
-15.13
-66.24
-126.04
-152.64
-64.98
43.71
94.54
110.38
112.79
77.19
21.81
-26.46
-83.15
-92.94
-4.93
49.9
20.54
-45.16
11.54
48.91
10.97
-72.58
-181.71
-185.36
-100.49
89.65
123.68
58.77
27.35
69.42
83.54
50.9
34.12
35.6
11.5
-37.32
-97.48
-126.23
-54.61
-24.28
-27.98
-46.87
4.97
20.99
59.83
63.61
4.74
-58.05
-92.05
8.06
81.85
76.89
26.23
-29.57
-40.32
8.76
15.8
28.63
39.87
-31.97
-50.1
-35.58
-2.52
45.23
45.01
33.26
21.36
-7.5
-61.42
-89.89
-10.13
92.91
91.79
32.59
-18.04
-54.1
-53.54
-34.14
-44.56
-37.76
-180.44
-473.69
-336.96
129.82
352.97
275.48
77.04
-64.79
-25.81
74.42
79.61
42.08
-5.24
-66.69
-33.7
28.49
39.28
22.66
23.27
49.94
50.47
30.97
-3.58
-30.83
-92.64
-105.08
-102.63
-60.37
22.23
89.07
129.32
100.87
45.93
-1.83
-55.89
-80.38
-101.83
-201.42
-272.78
-147.25
60.06
162.65
197.7
199.78
157.33
81.88
37.36
18.7
6.03
-75.16
-95.24
-58.44
-15.14
3.1
26.96
64.94
75.92
48.69
-2.89
-68.29
-97.2
-103.04
-132.67
-87.87
38.76
123.02
106.84
3.58
-63.69
-24.13
66.03
82.2
64.38
46.77
22.33
-10.89
-56.07
-46.19
8.41
40.22
23.65
-20.3
-44.99
-103.49
-177.69
-192.47
-161.81
-50.08
85.8
173.95
209.59
161.66
27.53
-62.49
-64.91
-52.66
-82.07
-139.2
-124.78
-8.49
70.56
28.37
34.14
49.85
19.39
-17.31
-0.65
5.33
-68.66
-64.14
3.96
92.36
113.06
9.83
-65.35
-60.77
-10.01
14.99
16.16
59.75
71.4
82.79
56.84
4.16
-12.2
21.47
31.69
-26.08
-193.75
-208.38
-39.28
55.06
74.3
52.59
58.2
50.38
41.82
72.85
42.48
-27.45
-77.22
-123.32
-116.48
-134.44
-96.08
21.99
81.4
45.52
9.51
-8.79
103.83
108.09
41.04
-22.14
-35.02
-16.45
9.34
48.26
61.43
55.14
28.69
-55.59
-92.65
-5.83
21.1
20.71
-2.16
-57.06
-84.01
-53.59
89.62
118.9
39.82
14.49
42.61
-7.28
-80.72
-55.74
-14.82
0.51
-26.44
-23.64
-17.41
-4.96
37.76
69.76
69.39
15.34
-8.03
-20.56
-15.93
2.59
51.94
39.41
29.91
14.98
-28.32
-51.37
-44.12
-103.34
-176.99
-152.63
-20.73
87.48
119.23
88.65
50.26
6.58
-6.44
0.02
-12.86
-70.08
-136.98
-150.49
-133.88
-97.99
31.21
150.53
153.29
107.46
82.64
62.58
41.87
19.31
-29.01
-87.41
-96.94
-36.42
-36.62
53.84
120.87
86.59
16.96
-14.96
-37.84
-65.32
-79.72
-57.01
16.83
43.25
-8.28
2.12
57.24
47.48
-39.68
-92.74
-109.64
-96.69
-91.06
-136.21
-30.55
169.6
188.51
131.57
109.69
40.08
-8.09
-18.46
9.11
40.69
41.69
22.22
50.05
0.31
-69.4
-29.71
52.91
-12.46
-134.64
-180.86
-198.54
-69.72
63.58
122.59
103.6
58.1
-0.05
12.56
36.46
53.46
50.94
15.04
-0.97
34.56
58.35
32.12
-51.31
-33.05
30.97
31.57
-21.14
-56.55
-140.05
-170.47
-154.31
-100.2
-21.4
37.43
97.66
123.76
32.36
-75.56
-104.02
-76.77
-8.08
48.62
-16.27
-43.29
-4.2
33.7
82.04
100.28
80.63
71.3
68.94
86.3
46.03
-40.93
-58.61
-6.53
39.32
46.78
20.67
-2.95
5.47
57.97
29.06
19
19.51
6.03
-1.47
13.67
12.92
-5.05
-43.02
-93.13
-82.15
-50.2
-44.52
-64.42
-57.18
-52.35
-59.83
-60.54
-66.44
-63.98
11.41
91.73
47.61
-42.5
11.63
3.2
6.14
69.78
174.56
170.14
111.79
55.93
-21.52
-143.93
-239.51
-202.6
-13.74
148.35
148.51
81.76
6.29
-36.1
-11.93
5.6
5.37
-53.8
-125.25
-155.32
-25.48
28.93
44.9
141.26
142.32
106.98
96.09
116.03
55.52
-7.82
-43.64
-98.73
-246.27
-361.9
-217.4
51.33
146.44
116.79
143.65
162.13
133.84
63.18
-15.05
-71.92
-92.69
-16.24
-1.7
-31.43
-35.28
-27.12
68.73
130.5
75.12
-42.68
-111.28
-86.34
8.04
86.46
87.26
59.06
32.56
-14.4
-147.48
-319.57
-272.01
-0.15
158.11
118.08
94.51
96.84
45.63
27.03
16.83
5.44
-46.08
-155.65
-233.27
-225.52
-81.84
91.16
185.97
137.15
99.36
78.45
24.57
11.96
35.78
38.42
-75.26
-64.99
8.83
45.04
82.9
57.71
1.95
-79.65
-167.68
-117.71
-2.06
33.64
60.95
122.14
82.53
37.58
-7.52
8.13
23.05
-21.72
-96.7
-101.31
15.55
88.83
-21.71
-92.4
-50.95
7.18
26.83
42.38
18.76
-20.2
25.9
73.24
-41.01
-244.08
-200.36
-49.71
1.14
33.19
37.77
85.31
119.49
89.26
85.18
79.8
58.33
28.06
33.55
41.22
14.47
-26.43
-46.34
-19.32
19.18
54.35
42.81
3.81
1.28
-37.72
-96.64
-83.77
-41.27
9.37
66.07
102.32
72.87
16.06
-37.9
-39.5
-96.97
-287.31
-417.54
-243.62
98.81
228.94
172.04
-38.45
-86.37
100.72
228.55
191.36
71.19
-25.94
-27.6
12.57
-22.42
-50.2
-78.34
-154.36
-112.12
85.28
211.54
212.2
143.11
45.88
13.13
-8.88
-2.4
-18.83
-56.58
-30.07
35.66
24.33
-28.97
-81.78
-81.86
-38.63
-111.94
-193.03
-99.33
58.3
132.77
119.7
95.88
36.69
-62.56
-208.24
-287.18
-264.38
-74.68
138.74
227.67
225.65
156.69
65.54
39.13
39.43
30.63
21.22
20.69
5.75
-56.14
-104.56
-76.5
30.2
31.26
-25.94
-45.03
-77.89
-98.44
-28.81
133.67
151.02
88.05
52.79
37.43
18.34
-14.75
-61.87
-110.99
-107.47
-67.11
-36.49
-72.89
-129.88
-90.27
19.95
130.83
178.27
211.3
147.34
58.7
74.65
78.28
44.28
34.77
28.21
-1.25
-82.68
-155.68
-118.9
-90.59
-128.46
-141.52
-177.06
-132.48
11.7
98.93
124.72
124.92
110.78
87.78
49.6
32.27
27.04
33.79
27.71
-21.75
-134.6
-281.59
-190.91
41.05
108.02
21.14
-100.6
-77.64
92.53
168.85
187.02
156.19
108.74
78.84
59.01
36.41
-29.89
-103.19
-103.78
-89.35
-49.88
10.45
51.96
51.21
68.37
29.9
-27.03
-53.23
-49.15
-2.08
9.46
-18.67
-9.08
31.34
39.31
-26.89
-53.13
-45.6
-96.37
-161.28
-198.73
-161.82
-21.14
52.64
111.3
160.17
138.16
104.03
25.16
-53.86
-7.46
64.77
93.72
78.27
5.86
-41.96
-32.88
3.59
-22.89
-43.18
-11.8
-7.67
-12.89
9.65
26.31
47.25
-1.83
-119.13
-147.83
-59.21
93.02
159.45
149.8
125.7
101.8
55.25
-15.85
-46.56
-38.19
-27.24
-12.65
-21.55
-9.29
2.01
-24.45
-93.22
-122.57
-99.83
-105.03
-84.5
-52.24
-67.82
-126.73
-91.26
14.4
8.28
-68.94
-121.64
2.19
169.52
262.85
216.83
92.65
76.76
105.81
89.45
57.8
44.83
36.31
23.73
-7.39
-41.05
-45.93
-35.37
1.41
59.26
67.25
61.79
34.58
-17.37
-161.77
-263.41
-238.74
-206.19
-120.98
29.73
58.57
70.36
28.11
-125.56
-243.77
-200.72
-8.6
169.34
292.63
264.29
164.08
126.35
105.58
90.96
76.63
20.16
-67.33
-129.34
-158.21
-152.94
-84.77
-54.75
-121.38
-242.52
-104.39
155.04
266.17
282.79
259.89
158.68
59.02
22.07
-6.54
-136.2
-287.21
-241.14
-70.02
19.58
116.72
111.32
88.1
72.9
51.51
42.14
32.92
4.53
-6.02
1.84
13.57
-28.49
-59.58
-64.36
-168.25
-210.73
-157.9
-108.44
24.14
131.52
31.4
-136.46
-143.38
-5.95
132.73
209.38
185.93
134.64
111.38
98.09
73.24
46.71
33
3.6
-94.91
-176.43
-167.3
-137.58
-59.07
-79.29
-137.78
-54.24
-32.6
-55.23
-68.61
-2.47
128.17
143.42
141.11
124.74
80.55
28.51
-6
56.28
59.84
-49.52
-75.41
-13.67
-13.77
-23.56
2.76
-70.16
-154.41
-88.29
112.1
221.35
215.28
153.26
101.6
70.22
19.83
-88.91
-231.69
-392.48
-351.27
-83.87
159.59
158.05
96.98
90.05
104.04
47
-40
-81.42
-76.02
-76.61
-72.01
31.14
164.3
160.2
30.09
-64.32
-64.44
-46.8
-79.67
-68.85
-102.05
-239.23
-183.23
54.01
154.64
149.26
122.45
109.07
97.22
72.97
0.77
-161.32
-301.43
-228.61
13.54
192.56
219.23
180.45
118.86
38.92
-0.77
31.62
67.36
-27.28
-107.55
-119.98
-142.79
-90.74
-16.68
45.52
166.29
163.64
70.18
-98.57
-207.46
-123.86
-14.36
115.85
145.71
70.19
8.39
11.24
8.01
-19.37
-77.78
-47.69
65.57
66.51
3.87
-26.33
-61.35
-43.22
47.51
0.77
-70.31
-53.98
-4.18
25.93
22.15
28.67
63.74
8.34
-15.1
-25.28
-94.74
-226.62
-208.3
-27.01
100.84
101.95
129.21
129.88
116.42
64.41
-22.35
-63.74
-54.75
-42.57
-104.73
-106.72
25.77
16
-59.51
-49.28
18.71
75.23
111.69
98.11
91.33
92.19
60.26
34.37
22.66
9.14
-32.19
-81.75
-128.25
-91.13
58.62
108.6
15.28
-40.07
-16.12
28.09
41.11
5.34
20.39
55.88
67.24
33.72
-21.83
-23.49
-27.3
-96.21
-220.89
-347.62
-226.54
-82.83
-48.9
-90.65
-18.11
132.64
175.68
176.22
166.33
144.52
7.84
-174.02
-170.25
39.64
152.02
85.58
23.23
3.7
40.42
127.46
105.4
42.68
105.13
81.5
0.31
-38.47
-30.66
-25.73
-4.97
16.39
27.51
-15.88
-87.74
-113.13
-107.38
-131.69
-222.74
-413.86
-268.16
145.62
370.98
307.5
186.29
117.24
37.72
-15.13
-48.39
-101.87
-154.16
-110.98
29.73
95.78
20.65
-69.92
61.6
213.76
144.81
38.13
-15.57
-9.65
0.25
-11.59
-41.35
-151.96
-210.46
-225.97
-313.97
-274.23
-8.95
248.1
370.05
265.5
139.4
88.6
67.01
44.12
10.3
-38.38
-57.81
-71.56
-53.72
61.21
116.61
130.69
124.37
66.5
-8.14
-79.91
-71.65
-29.1
-38.04
-70.93
-54.59
-39.44
-148.9
-188.33
-45.48
73.9
-6.14
-79.33
38.81
203.97
113.86
-157.64
-333.28
-336.53
-118.88
148.89
320.8
338.86
276.7
176.68
94.9
46.49
-27.84
-107.55
-181.5
-314.97
-341.76
-99.85
43.52
100.16
152.02
105.54
28.7
-58.28
-50.85
59.7
125.63
91.37
86.21
80.26
84.73
72.55
53.06
40.95
42.05
4.82
-38.82
-34.83
-169.34
-439.55
-453.8
-26.66
254.46
236.44
133.28
42.17
-13.85
-5.64
2.61
-137.42
-105.22
107.52
156.54
80.51
81.6
24.34
-96.5
-94.94
31.15
60.85
21.04
73.01
128.96
104.98
11.99
-172.25
-490.26
-623.72
-296.05
38.73
231.44
309.52
274.35
195.52
118.78
118.48
98.67
52.41
20.88
-8.86
-42.23
-94.82
-96.49
-76.53
-60
19.62
97.82
123.92
86.1
-4.41
-79.28
-70.57
15.53
-2.06
-94.82
-163.27
-107.28
-10.35
108.91
149.09
163.32
112.87
21.52
-6.87
-18.72
-42.24
22.56
106.94
71.01
-33.92
-175.92
-135.78
2.74
-16.44
-43.15
25.45
28.94
39.7
22.47
-3.18
11.12
11.46
-144.54
-369.07
-392.4
-230.22
-39.64
150.05
266.26
288.44
179.13
16.95
-53.03
-41.14
27.31
94.77
117.51
31.33
-13.65
51.68
32.77
-42.16
-104.31
-232.51
-240.18
-98.82
-55.34
15.15
101.25
114.52
131.07
188.5
147.5
89.33
44.98
48.63
71.05
30.15
-36.48
-12.14
63.33
48.21
-13.96
-77.65
-198.16
-249.77
-161.39
-200.48
-298.45
-73.21
274.87
336.01
268.28
156.06
72.99
41.61
-36.3
-153.96
-187.39
-86.5
114.93
153.4
137.05
54.67
-62.9
-105.89
-42.67
59.45
85.02
80.29
43.17
29.22
15.97
-20.58
-56.43
-42.13
5.39
-49.07
-194.99
-317.22
-358.81
-320.68
-51.47
252.24
329.16
276.64
145.47
53.49
66.22
99.3
96.35
6.81
-86.95
-71.46
-19.73
-10.92
16.16
39.26
-0.97
-5.64
15.42
-13.61
-46.13
-28.43
50.72
81.32
30.86
-90.83
-144.84
-45.96
82.48
132.8
46.89
-19.49
-20.12
-18.79
-43.44
-71.08
-41.39
-121.19
-295.87
-283.62
-85.38
47.81
120.49
111.49
29.6
-14.15
119.95
237.66
216.06
118.84
38.15
54.75
78.29
-11.38
-114.55
-220.92
-449.5
-575.31
-328.04
83.02
364.56
399.94
318.94
207.29
146.18
95.6
43.8
13.79
-7.19
34.55
84.45
83.89
22.9
-110.95
-198.51
-111.57
-34.89
-27.2
-62.89
-102.27
37.35
132.2
123.8
90.52
14.96
-35.91
-90.85
-255.94
-256.41
6.85
121.43
-51.44
-125.71
20.75
123.74
149.34
149.85
125.29
94.39
56.26
-36.23
-235.47
-413.97
-243.79
190.79
273.73
187.32
144.2
130.15
111.91
81.99
32.21
-19.78
-87.54
-229.55
-419.48
-335.97
97.01
282.25
224.56
129.56
88.82
59.65
22.14
-23.16
-15.68
38.21
38.65
-43.49
-143.65
-288.53
-466.08
-228.81
134.24
262.84
224.79
151.73
44.22
-12.4
-24.02
1.77
7.02
-0.58
31.7
15.44
-18.19
25.46
70.47
28.02
-50.1
-121.91
-190.43
-231.21
-67.81
187.8
233.46
162.15
104.6
70.76
49.48
13.87
-124.15
-287
-244.64
-159.36
-138.54
66.86
221.65
212.19
165.25
104.58
70.87
77.2
52.65
17.24
-6.6
-24.55
-20.68
-23.46
-33.64
-33.25
-42.44
-36.99
-38.56
-61.53
-86.27
-138.42
-99.97
-11.62
26.03
92.74
139.23
122.91
106.41
80.98
54.46
25.31
-59.15
-187.97
-220.04
-168.26
-13.86
89.36
129.22
-15.27
-213.72
-203.41
93.05
283.68
200.92
100.97
43.2
-4.01
-130.47
-205.15
-2.44
167.83
133.09
89.73
49.81
19.95
-1.56
-4.59
-15.84
-74.49
-186.82
-360.8
-512.62
-225.06
157.09
291.48
289.77
174.72
48.41
48.53
78.98
58.6
73.84
74.5
-22.49
-101.88
-38.32
81.28
95.36
46.61
-16.82
-48.2
-32.45
38.73
33.99
-9.51
-16.21
10.44
31.01
-51.06
-121.43
-120.8
-21.73
67
35.74
-18.02
-34.45
-36.56
-39.76
-65.31
-117.26
-136.26
-30.91
89.85
98.99
28.95
-122.47
-169.55
-40.01
2.88
42.45
98.78
128.31
113.71
76.01
54.19
92.62
19.54
-92.57
-50.96
63.25
52.46
15.79
-6.55
10.92
55.53
53.39
-21.93
-33.63
47.2
110.17
79.11
19.37
-37.62
-70.63
-70.44
-25.06
-1.12
-35.06
-32.31
12.74
25.73
38.47
39.34
43.46
7.68
-36.85
-41.62
-94.32
-241.6
-276.03
-89.52
127.4
180.73
168.45
113.57
53.09
2.02
-3.73
-4.88
15.34
23.86
14.31
25.25
17.46
-25.24
-16.84
-24.93
-15.68
-13.26
-13.56
-39.22
-77.07
-94.3
-56.56
-8.95
27.87
63.82
76.17
66.98
57.36
47.8
37.36
18.2
-33.48
-65.14
-74.07
-93.12
-86.67
-36.45
-23.53
23.54
72.53
83.24
62.22
25.92
-35.17
-56.15
-3.43
22.78
37.83
23.34
-6.91
-65.63
-242.38
-329.25
-95.53
185.62
225.64
157.47
105.47
87.57
105.17
54.67
-14.3
-64.54
-82.29
-47.28
-41.99
-21.06
67.6
33.92
-68.31
-103.09
-31.04
80.46
87.35
31.24
-11.84
-33.99
-8.66
33.14
72.16
57.04
42.87
6.29
-80.28
-128.33
-78.29
-89.11
-91.27
-19.74
11.32
42.5
67.41
66.48
61.02
28.79
-29.65
-107.98
-67.55
39.99
51.46
40.09
45.79
18.46
-11.69
-2.98
42.38
19.32
-63.07
-86.46
-20.52
59.81
86.06
76.1
68.28
54.01
20.96
-11.8
-60.6
-132.29
-199.36
-187.5
-109.19
-32.27
145.81
194.51
113.79
52.97
11.89
-5.56
1.15
-31.13
-67.89
-13.13
74.8
68.21
48.52
32.22
31.45
42.34
18.83
-50.65
-133.73
-123.46
-3.06
69.88
75.34
64.49
42.46
-26.31
-133.65
-117.32
-15.8
53.14
45.46
34.53
-5.99
-21.75
-10.77
2.46
-20.15
-21.72
16.04
41.03
19.42
3.71
-2.93
-44.66
-52.02
-8.8
74.15
68.5
15.44
-7.91
41.65
46.77
-18.71
-28.11
-27.44
-21.55
29.14
38.56
-5.96
-107.92
-143.77
-264.84
-418.55
-185.9
190.44
227.67
210.45
211.98
149.9
106.59
72.56
59.22
54.38
39.87
-3.92
-37.79
-75.3
-93.04
-59.69
5.2
56.77
95.88
61.24
0.05
-50.62
-44.02
-50.82
-59.31
-56.39
-26.18
59.1
85.37
67.74
57.57
21.14
-37.96
-40.66
16.57
41.78
53.69
80.77
29.73
-25.2
-2.94
10.31
-1.14
-9.66
-8.74
-32.58
-67.69
-82.67
-24.72
-6.06
-40.92
-40.66
-55.46
-71.1
-70.98
23.59
112.1
112.02
66.71
35.02
53.63
49.37
31.67
12.91
-8.24
-42.11
-73.5
-72.26
-39.46
-1.23
16.78
29.99
38.27
33.06
40.38
39.03
25.63
13.74
-40.99
-166.24
-160.52
-70.61
43.98
95.53
99.25
56.35
-15.5
-73.42
-59.17
22.52
60.98
23.3
-9.9
-14.02
-11.15
19.41
37.93
-10.59
-70.59
2.63
32.31
-33.51
-27.1
50.5
90.54
73.88
4.79
-49.12
-13.94
44.89
44.16
18.5
13.65
2.24
-19.66
-34.93
-59.35
-128.62
-202.91
-108.98
76.02
103.85
87.38
58.3
11.55
-9.5
16.99
37.84
40.67
36.07
11.98
-10.5
-12.53
-11.65
-62.51
-148.33
-165.58
-83.67
27.96
124.99
149.35
113.36
54.7
61.11
35.25
4.43
-10.53
-18.17
-48.77
-78.81
-21.51
79.79
117.08
87.1
9.56
-61.56
-43.58
-0.27
-0.71
-9.63
-37.53
-70.61
-55.61
1.86
77.87
73.05
4.34
-27.21
-38.45
-63.78
-82.27
-66.77
-45.37
-2.89
22.29
38.37
33.68
10.29
21.61
25.71
31.26
8.5
-76.02
-142.21
-89.51
-41.26
-54.34
35.18
136.54
160.49
139.55
97.1
59.89
52.19
30.67
-5.94
-16.5
-20.66
-29.15
-50.45
-67.56
-38.7
-19.68
14.13
37.93
80.75
82.51
16.97
-54.16
-74.56
-66.31
-39.48
-67.5
-98.68
-50.73
19.93
94.77
126.17
101.78
60.03
40.99
40.11
11.87
-25.64
-30.76
-86.53
-264.09
-321.86
-142.73
45.59
136.35
133.7
107.53
44.43
-8.15
22.35
83.19
88.65
41.92
-7.79
37.73
75.57
29.22
-31.67
-49
-35.88
-15.09
-32.95
-112.12
-131.69
-170.06
-137.42
33.54
185.45
177.24
93.34
29.11
0.62
0.61
8.69
-11.36
-71.58
-110.79
-77.74
-38.01
-3.23
108.74
143.89
106.63
70.84
38
-3.47
-15.1
-18.79
-37.69
-35.44
-14.57
-23.2
-21.42
30.32
80.06
62.85
-60.7
-213.36
-140.03
24.35
49.57
73.19
81.52
67.07
62.28
61.11
33.66
1.2
-22.83
-54.37
-91.73
-130.51
-100.52
-22.2
25.12
34.86
60.01
86.66
104.35
81.52
72.65
61.96
8.78
-38.74
-40.12
-31.57
-54.12
-86.79
-151.86
-107.93
47.27
52.99
7.13
-59.91
-141.46
-98.95
48.1
168.78
124.52
123.22
153.19
83.54
18.7
2.97
16.35
17.89
-8.31
-52.64
-67.58
-43.06
6.84
32.86
55.49
-36.14
-164.48
-126.15
17.96
60.21
47.59
38.53
49.16
37.05
-41.11
-100.82
-34.68
46.8
70.96
68.55
29.39
-56.38
-144.28
-193.86
-166.48
-33.74
90.35
151.22
130.41
63.57
36.81
42.37
32.46
65.06
87.8
57.34
27.21
15.71
-14.3
-61.13
-98.36
-94.42
-99.2
-94.37
-111.83
-63.7
66.61
139.72
129.4
87.55
29.32
-33.91
-29.48
-24.21
-34.29
-55.98
-118.7
-43.07
43.57
32.42
50.84
45.07
59.74
118.45
116.77
62.22
13.85
-4.21
8.17
28.02
60.79
53.1
-21.73
-57.55
-23.92
-1.29
-39.49
-75.09
-21.24
24.55
-21.59
-107.59
-95.5
7.02
61.09
25.92
-31.38
-39.36
-17.72
27.6
61.41
59.9
40.82
46.28
-23.16
-92.4
-35.7
7.44
-31.46
-55.98
-29.72
3.26
4.88
-41.14
-57.92
-36.12
-44.58
-110.71
-83.24
83.55
132.85
120.88
73.43
-0.35
-33.44
8.85
-1.64
-50.67
29.94
116.33
96.61
46.28
17.31
-10.94
-32.95
-35.45
-87.36
-115.32
-88.8
31.53
142.25
109.05
26.44
-5.58
-33.55
-55.13
-34.13
10.94
27.22
-8.08
-54.65
-68.33
-32.89
12.77
34.5
0.84
-31.78
4.53
120.47
156.12
76.4
19.3
28.67
18.84
1.08
-3.14
-7.81
-43.34
-88.84
-129.15
-120.89
-47.64
23.41
53.02
52.61
61.86
38.49
13.68
14.39
27.18
4.74
-47.93
-109.7
-127.65
-50.79
21.2
33.26
11.14
-13.32
14.4
38.23
25.81
-8.14
-22.82
-54.21
-73.85
-90.39
-40.1
3.13
31.32
46.94
87.56
116.29
107.87
63.81
-46.29
-139.91
-88.65
26.04
102.87
122.49
101.74
59.27
27.93
22.15
29.09
20.2
-0.1
-25.45
-19.1
25.93
22.85
-36.56
-108.36
-178.61
-179.25
-20.62
92.8
108.84
76.52
20.33
-22.69
-40.01
-90.57
-146.16
-54.71
36.5
84.42
81.9
49.75
31.41
41.6
72.18
67.88
67.92
59.41
42.07
26.2
-24.48
-136.55
-235.13
-120.75
53.49
98.7
79.49
38.52
10.97
-32.77
-45.87
-38.45
-50.7
-122.95
-88.77
66.09
123.19
93.65
80.79
75.99
34.18
-10.25
2.54
-5.13
-20.71
-54.55
-97.59
-94.53
-20.54
49.23
61.31
10.55
-2.05
21.37
25.45
-37.08
-68.02
11.1
63.42
80.25
59.04
34.28
22.33
4.49
-19.96
-38.5
-44.78
-27.92
3.35
-2.53
4.91
37.11
43.11
40.66
-21.12
-85.7
-158.52
-157.46
-132.15
-132.25
-14.18
155.55
185.64
115.44
5.67
-93.92
-56.89
39.05
124.84
127.3
56.74
36.76
60.17
73.89
54.02
36.58
7.77
-21.11
-62.48
-93.63
-22.58
92.84
93.91
21.94
-19.89
-16.8
-11.92
-24.05
-31.43
-48.18
-87.5
-121.46
-144.65
-124.51
-79.66
4.4
89.9
142.55
121.34
59.64
-17.16
-63.41
-49.37
-31.44
-7.17
35.62
32.21
30.55
55.59
61.56
54.85
33.47
18.79
1.96
-30.42
-5.68
19.07
53.27
13.16
1.67
35.84
65.18
36.44
-7.35
-49.65
-104.73
-131.48
-79.18
15.32
48.99
20.66
-34.03
-120.08
-127.5
-49.76
74.01
113.35
87.53
63.99
53.75
40.84
28.72
-0.37
-27.91
-47
-80.84
-97.66
-35.2
25.82
38.45
50.54
36.67
17.61
29.65
23.54
7.38
12.57
0.44
-24.49
-7.27
-16.02
-43.57
-59.9
-84.58
-115.49
-86.06
-46.56
-10.23
49.97
92.07
79.28
49.34
71.32
77.22
68.88
62.06
40.98
14.44
-24.67
-15.24
8.22
12.6
-12.77
-106.81
-41.34
66.73
62.11
26.89
24.87
2.56
-40.68
-59.59
-49.97
-48.91
17.92
17
15.52
11.67
6.82
3.4
3.32
-1.13
-1.52
-2.81
-5.09
-6.01
-2.77
-1.37
2.91
3.56
5.12
6.35
3.17
3.2
5.14
1.39
-1.54
-5.52
-8.91
-9.64
-13.61
-16.76
-17.59
-17.18
-16.58
-15.93
-13.54
-11.12
-8.25
-2.02
1.47
3.7
5.7
6.58
7.52
7.3
5.02
2.53
-0.91
-2.8
-8.1
-9.05
-10.95
-11.73
-10.44
-9.59
-5.91
-4.54
-1.91
2.3
4.84
5.74
5.43
7.31
9.28
11.68
10.16
5.84
2.63
-2.65
-5.6
-6.82
-9.9
-11.32
-11.21
-11.55
-10.94
-8.05
-5.55
-1.25
1.48
5.21
7.16
5.98
8.49
10.62
11.3
8.22
4.83
0.89
-2.69
-4.83
-8.24
-10.31
-12.16
-11.5
-10.82
-7.03
-3.44
-1.21
1.21
5.92
5.76
8.24
10.42
10.85
10.95
8.84
4.9
1.05
-2.29
-5.32
-4.86
-8.98
-7.58
-7.8
-10.3
-7.04
-6.36
-3.42
2.86
6.05
5.78
5.59
6.83
11.05
12.08
11.16
6.44
5.34
2.7
-1.25
-2.59
-5.7
-9.34
-11.24
-11.64
-9.45
-6.24
-4.27
-0.92
2.87
5.14
6.48
11.15
12.85
12.21
11.52
8.84
6.51
5.11
0.23
-0.35
-3.58
-7.73
-7.5
-9.82
-10.12
-7.24
-3.67
-1.32
5.17
6.02
8.68
11.29
11.85
12.29
9.19
10.35
9.79
6.48
2.24
-1.64
-3.59
-4.76
-8.99
-9.03
-11.09
-11.4
-8.12
-6.22
-2.1
1.74
5.82
7.94
9.88
11.18
13.05
12.88
9.09
6.94
2.3
-1.66
-2.68
-4.8
-8.81
-11.75
-11.92
-10.08
-7.4
-5.48
-2.16
1.01
1.04
3.9
4.71
7.71
9.04
10.91
6.78
4.79
3.46
0.72
-2.3
-4.66
-8.64
-10.53
-9.06
-10.84
-12.18
-6.37
-2.16
-0.35
4.66
5.52
8.71
13.3
12.78
14.82
14.04
11.51
7.61
4.63
0.61
-4.55
-5.32
-6.65
-8.74
-9.84
-11.16
-9.92
-4.33
-2.07
1.18
4.93
6.6
5.34
7.85
8.52
8.36
9.23
5.38
3
0.27
-3.56
-4.48
-5.01
-6.75
-9.18
-10.3
-8.41
-6.51
-5.12
-1.44
1.39
4.42
7.52
10.16
11.3
11.77
11.04
10.49
4.61
3.39
-1
-4.76
-5.56
-7.08
-11.13
-12.95
-11.56
-5.4
-3.37
1.18
2.72
3.68
6.62
8.56
8.16
11.36
11.09
10.48
7.89
3.95
1.97
-2.86
-5.71
-6.44
-8.63
-11.04
-9.64
-6.76
-6.25
-3.94
-1.47
3.24
4.84
6.22
9.06
10.32
7.22
6.75
7.64
3.43
-0.54
-5.81
-8.91
-9.35
-12.33
-14.7
-16.15
-15.43
-12.39
-8.01
-3.82
-0.04
3.58
6.02
8.03
7.08
9.74
9.47
8.94
7.81
4.93
-0.57
-2.92
-5.15
-7.42
-11.96
-13.61
-14.03
-12.18
-9.41
-5.51
-1.97
2.68
5.45
7.51
10.27
11.03
10.88
9.01
7.85
6.42
3.53
-1.43
-5.54
-5.97
-9.74
-11.08
-11.91
-12.41
-10.23
-5.92
-2.12
1.45
3.67
6.76
8.27
9.42
8.85
10.73
7.98
6.85
3.65
-0.75
-4.4
-7.55
-8.3
-8.75
-8.79
-12.63
-11.96
-7.1
-3.53
1.03
4.06
5.18
7.72
9.06
11.09
11.08
8.29
5.87
5.05
2.14
-0.85
-6.31
-7.18
-9.74
-12.49
-11.6
-10.95
-10.91
-6.12
-1.31
1.73
5.18
5.94
6.83
9.27
12.62
11.33
9.64
6.28
2.41
-1.52
-2.51
-4.43
-5.53
-8.31
-10.31
-10.63
-8.86
-4.32
-0.73
6.94
12.23
11.57
11.26
15.01
14.67
8.13
0.03
0.5
3.77
-0.07
-9.46
-13.22
-13
-11.79
-13.38
-15.39
-13.37
-9.31
-4.15
2.36
6.21
5.12
5.32
6.78
8.8
11.56
16.46
18.68
13.64
8.33
-1.4
-6.44
-4.67
-8.48
-13.34
-12.93
-8.58
-4.89
-2.75
2.25
5.39
5.25
0.73
1.26
4.32
9.98
10.7
8.64
4.96
2.83
-1.21
-2.1
-1.89
-8.55
-12.54
-18.93
-22.66
-13.55
-9.53
-4.84
2.48
3.75
-1.42
-2.65
-2.44
-0.92
3.58
11.62
10.85
12.83
10.14
1.28
-2.99
-0.55
1.6
1
-2.07
-7.12
-11.39
-17.06
-20.75
-24.43
-20.52
-6.57
13.68
18.5
23.67
23.33
21.13
4.15
-22.65
-24.88
-4.8
-1.24
0.27
-1.59
-6.64
-14.27
-13.55
-17.43
-18.82
-8.61
3.32
9.44
7.26
-13.94
-36.47
-26.3
0.55
-7.7
-18.61
0.87
7.57
5.89
20.19
29.63
13.39
-2.13
-12.32
-6.06
1.94
-14.8
-10.1
14.59
8.09
8.22
21.43
17.59
14
-3.31
-21.92
-36.88
-35.59
-35.49
-69.18
-63.29
-20.43
38.53
56.32
47.26
24.32
-0.95
1.35
-6.46
-61.16
-122.79
-76.35
14.41
67.78
72.83
75.2
39.29
11.05
-0.08
11.76
8.11
15.87
24.45
24.03
20.24
-4.68
-49.51
-40.55
-30.74
2.46
2.62
-11.63
-15.2
-21.68
-40.74
-29.68
6.44
-11.13
-44.48
-27.48
-44.85
-93.81
-36.11
53.23
79.59
59.91
21.46
13.66
24.37
2.63
21.73
29.43
45.1
37.43
21.55
35.04
42.91
35.34
21.64
12.38
2.35
-4.06
-27.61
-61.06
-55.78
-20.14
10.61
16.89
-12.09
-59.5
-70.49
-16.42
-9.68
-62.35
-44.54
15.3
5.98
-5.47
3.18
-12.98
-2.68
27.3
27.55
-22.91
-78.24
-14.4
59.84
60.39
48.53
26.22
9.25
-13
-87.23
-148.32
-144.9
-103.8
22
126.55
126.88
88.03
49.77
30.8
14.91
4.35
-17.95
-43.55
-58.49
-40.03
30.73
55.96
22.1
0.74
-16.61
4.45
75.08
80.02
7.13
-38.81
17.79
47.96
18.22
-27.91
-29.53
-5.17
21.68
61.29
51.25
26.41
-5.53
0.17
18.09
30.52
24.26
-19.35
-49.3
-33.15
-29.14
-5.68
-21.46
-49.25
-4.13
34.52
1.94
-31.68
-15.69
21.31
26.38
-11.81
-83.64
-99.44
-36.73
-1.4
5.49
-29.71
-20.17
41.98
54.26
67.27
72.99
46.79
18.13
42.6
44.15
10.55
-0.06
-3.38
-31.05
-93.87
-56.8
-0.1
14.29
-45.31
-77.11
-20.26
34.87
26.45
-0.01
-12.52
-3.93
41.55
63.73
45.51
38.28
33.4
-3.41
-2.11
28.81
12.09
-53.13
-98.93
-50.75
-0.61
30.45
34.22
17.14
-6.57
-7.39
-38.33
-43.38
18.4
52.86
32.86
14.52
8.8
6.95
-0.95
-63.51
-167.66
-166.52
-57.37
30.35
49.13
32.37
34.62
32.62
27.27
29.13
33.32
21.73
-5.65
-51.6
-59.09
-21.72
7.44
21.07
38.4
-34.66
-139.85
-154.28
-31.75
55.36
61.6
60.42
67.33
55.7
-0.66
-79.95
-118.81
-72.29
22.78
57.25
15.27
-30.03
-65.44
-98.46
-93.68
-13.07
70.32
67.51
42.96
80.06
131.25
86.02
30.01
-1.42
-19.4
2.32
-28.49
-101.43
-130.14
-72.4
9.53
41.16
63.88
82.26
100.74
86.88
42.54
7.79
7.5
10.97
0.54
-7.4
-5.06
-9.5
6.25
18.01
-7.43
1.51
-14.05
-38.82
-38.52
-40.41
-32.6
-12.81
-43.14
-66.38
-90.86
-94.46
-36.17
87.57
109.04
74.8
43.58
-4.49
-40.84
-3.06
34.57
45.55
14.75
-17.02
-47.34
-159.01
-313.32
-114.12
80.34
99.38
103.77
88.35
42.88
32.23
14.02
-33.25
-56.97
-100.39
-156.17
-124.57
6.08
118.48
119.77
75.86
45.48
54.74
57.71
8.08
-58.85
-70.06
-28.09
-22.41
-57.67
-44.41
-9.81
43.91
55.29
53.1
56.9
25.79
-51.43
-100.18
-62.7
18.04
73.47
77.22
73.71
46.48
23.79
-0.92
-23.55
-15.12
-73.92
-116.12
-61.88
-47.46
-45.93
-10.87
35.69
45.76
22.86
-84.34
-151.82
-5.64
92.35
104.51
115.98
57.51
18.74
12.83
-3.99
-74.88
-108.56
-49.9
32.64
77.53
60.99
53.38
30.72
-13.01
-39.53
-19.22
27.18
71.97
44.64
1.75
26.42
45.02
44.3
16.55
-12.56
-25.36
-66.93
-100.63
-127.05
-97.81
-28.17
14.82
1.15
15.79
4.2
-52.56
-35.59
19.78
-11.29
-51.47
-19.75
-19.31
-3.43
13.19
-28.03
-0.02
73.62
112.63
52.79
-25.54
-176.89
-202.4
-36.09
-6.6
-68.93
-29.89
5.97
38.29
