1.11
16.01
20.87
-43.05
-9.92
4.73
66.65
17.16
5.73
-10.44
37.22
-7.54
111.51
-65.89
-21.1
16.12
83.94
1.85
-24
-2.43
41.74
33.42
143.48
5.32
10.91
80.6
9.71
-1.44
133.69
-11.32
36.26
-19.86
4.21
-87.27
-13.73
-93.57
23.32
16.55
-11.75
128.44
-7.41
4.73
4.51
-19.19
-39.7
-6.09
78.15
31.36
-19.3
-3.18
-11.12
-45.41
-17.22
14.29
-64.84
15.61
-2.02
9.16
9.38
44.05
121.26
14.18
-58.41
2.13
-9.14
10.04
-17.34
-5.47
38.7
115.38
6.14
23.38
-14.08
53.17
112.12
-2.95
1.01
22.1
-0.24
-12.9
-44.61
10.87
-41.18
-32.31
29.27
-5.91
-5.76
186
13.38
95.05
44.16
-1.48
4.81
-18.57
-5.26
12.77
-8.11
-16.78
-48.13
-19.8
-143.93
-37.06
33.68
44.96
62.79
-23.8
21.96
-7.78
-1.99
15.72
1.95
14.32
-0.93
-16.4
-94.73
-22.77
14.48
17.53
-3.53
-10.74
43.53
26.43
-12.07
-10.87
-49.31
54.66
-34.05
159.04
-4.34
50.23
15.29
-56.43
58.06
-31.43
10.91
-1.78
39.71
118.13
76.15
-24.37
14.42
2.54
31.76
7.63
21.32
-1.96
-1.3
-167.92
56.85
5
102.38
25.55
43.43
-6.93
-40.99
-12.48
23.08
0.62
3.64
-2.52
-6.8
67.87
111.54
-9.04
16.31
33.11
54.46
30.01
-21.13
-23.91
31.57
29.04
1.74
56.19
46.28
46.86
-41.89
1.2
5.17
-20.52
0.93
-5.32
109.7
80.11
-57.31
-10.98
5.18
-39.14
-1.88
-13.81
11.29
8.92
92.66
17.25
-72.64
-70.56
-82.28
-228.96
14.4
3.08
-172.09
4.7
-1.37
95.13
-142.42
-29.52
-66.2
78.1
95.31
113.16
-18.5
4.21
20.31
62.38
11.59
0.57
3.24
3.65
166.48
-4.6
159.98
-152.39
1.92
-4.41
-30.5
-36.67
1.38
-8.82
-7.69
-8.08
50.27
80.11
49.15
-5.88
-8.94
13.05
-50.67
13.73
-3.01
15.04
11.48
76.77
2.78
3.5
-9.5
13.02
-2.96
-21.62
47.12
-0.44
97.77
74.75
63
37.23
46.16
94.33
-6.05
-42.56
-6.96
17.6
5.56
11.12
-21.32
-0.04
12.3
-85.29
13.2
-25.32
-45.47
8.3
-25.55
77.55
-5.34
-64.15
4.13
8.95
4.06
10.51
3.28
-4.97
-17.29
-16.82
22.63
-62.23
8.86
62.01
-79.21
-13.86
4.91
8.11
5.63
-10.19
-12.39
-1.69
12.45
-7.47
6.22
109.01
29.45
4.15
-8.55
7.98
-298.23
-21.53
-33.56
18.03
-2.17
73.03
127.01
-3.61
205.25
-29.74
9.7
6.14
-1.87
0.32
41.09
-12.37
11.72
-4.2
-5.68
-12.07
3.22
14.6
-1.3
-6.61
0.69
1.42
-12.26
18.03
8.16
1.21
-58.93
3.31
-85.79
62.73
44.2
7.27
-6.91
-15.09
12.33
155.49
8.17
-41.28
-95.32
11.62
-16.79
5.97
-9.24
24.27
-27.36
31.21
5.09
0.58
41.23
-32.88
-9.92
-40.23
-10.8
52.45
4.99
-44.93
-37.63
92.84
24.32
-43.26
-67.96
4.98
60.14
8.36
-8.25
-1.92
-1.24
105.26
52.71
-4.47
-7.38
-263.02
24.11
-40.56
-21.43
0.24
62.56
3.78
-8.38
0.71
-31.01
53.49
-33.62
6.77
52.27
66.07
24.58
-3.58
14.45
3.05
-94.27
9.02
5.35
-10.97
-27.36
34.99
74.1
73.96
8.79
46.61
-10.94
-29.26
248.1
14.07
-78.03
-7.14
-4.06
5.28
-124.63
-68.68
-7.26
-2.19
15.98
-4.9
37.68
-11.57
-10.63
40.65
12.58
92.42
-6.37
-34.51
23.72
18.67
-7.24
43.81
23.99
73.45
56.75
-11.4
62.71
98.67
-47.11
-9.13
8.19
-45.44
-42.66
-55.13
-42.97
-49.76
-3.31
46.66
14.21
-7.81
12.88
-72.69
17.62
33.85
56.74
10.43
6.72
-1.58
-69.28
4.83
-25.24
33.88
14.7
5.19
-14.32
-107.31
1.32
-6.73
-21.45
-70.52
-8.99
-80.35
-23.4
23.95
53.65
56.26
-51.95
-42.38
64.72
-8.53
-12.76
-152.48
13.12
67.32
26.49
79.9
4.87
-52.81
1.23
-0.18
-112.57
35.11
-19.39
32.73
-35.2
-60.62
32.14
12.03
127.78
-129.18
-99.06
78.72
-19.9
-3.37
-96.56
69.76
-84.69
5.94
-2.45
12.02
14.38
0.22
-9.55
3.43
29.21
-4.85
6.18
42.87
9.94
12.38
45.63
9.83
-23.53
13.24
-15.9
8.55
5.64
-129.67
-5.46
14.43
20.96
8.94
21.14
7.57
2.71
170.14
17.59
83.61
-38.67
7.51
-113.11
32.26
4.32
44.18
19.46
2.86
35.31
21.49
82.51
15.71
-1.32
-6.28
-6.92
44.35
-21.47
-41.16
13
-9.53
-2.67
80.7
10.16
2.01
45.17
-6.1
-1.53
-2.01
-8.52
-94.55
73.06
2.94
12.25
-5.85
134.86
-15.26
-24.47
-121.75
-17.94
6.06
-12.42
2.28
13.39
2.37
23.42
14.64
-11.27
44.45
46.3
-53.65
-33.74
52.1
11.56
10.39
-10.66
-8.11
6.32
1.72
-32.18
51.51
-1.74
-40.83
-5.72
18.41
-1.38
32.81
-8.59
11.14
90.43
-6
6.58
8.68
32.97
-5.65
20.54
18.48
-37.68
8.97
-24.63
-96.95
34.66
21.44
12.96
16.16
-6.95
13.29
67.13
4.14
24.82
5.81
-14.39
186.76
81.38
-5.81
17.56
-1.21
4.69
51.82
23.64
-11.59
46.12
5.36
-15.4
-4.36
5.5
-1.43
-15.15
17.76
10.49
-52.62
-4.78
-18.99
90.16
-7.25
-12.82
63.58
13.09
5.02
17.79
118.2
20.28
-6.13
-0.73
0.81
19.91
-160.23
-1.89
-1.92
-0.82
8.48
33.94
82.16
62.25
4.89
52.4
13.87
-14.46
5.85
-8.12
-5.16
-4.87
16.79
5.23
1.82
4.93
6.5
14.49
-10.02
-6.96
-12.85
-14.94
-9.34
11.16
31.45
15.99
-3.76
-2.1
-38.71
28.09
-26.42
-13.2
-3.34
-7.66
-8.73
63.29
13.21
59.04
10.89
46.71
7.84
11.64
-44.53
-27.23
-8.51
5.81
54.07
-9.98
-8.12
0.47
1.54
-36.17
62.44
5.49
8.67
-40.06
-48.51
-2.52
4.49
-18.69
-3.61
3.79
-41.42
-1.28
11.47
-2.18
-153.15
3.66
10.99
-38.24
-0.54
22.41
11.08
-50
-2.11
-24.84
-33.5
-6.02
-111.92
41.12
-11.15
-41.63
1.4
0.66
1.3
11.61
18.64
158.84
-15.83
20.37
-76.67
-30.02
51.97
4.08
5.53
38.3
17.71
0.07
-41.35
28.99
19.93
-11.95
-37
3.24
-51.92
11.25
-6.7
43.95
-107.45
8.2
-10.01
-26.3
-7.36
16.95
-40.92
28.07
-125.62
-32.25
-14.29
23.22
-6.01
10.86
-42
-8.35
18.94
-10.95
-54.72
-5.33
-35.07
61.56
20.02
76.44
2.85
-1.97
26.27
-43.54
-17.05
-60.69
-17.28
-51.98
27.1
-39.26
-82.87
-3.94
-12.95
54.28
-54.16
-42.47
-5.4
23.56
-24.12
-52.27
33.06
144.07
-2.56
-122.76
-26.75
24.3
-126.35
229.24
55.51
-9.26
-6.2
1.65
-10.88
2.86
-12.34
3.28
-90.54
17.24
27.28
-80.7
-2.36
-17.46
-15.82
8.29
-11.46
7.78
12.38
3.29
-66.46
-0.83
20.84
130.56
56.17
34.72
-25.09
52.23
-9.95
-49.59
-8.51
-10.7
5.4
-10.4
-10.19
-2.69
-1.28
-1.69
32.4
-1.29
7.02
-8.8
-17.52
41.72
13.54
6.69
-2
-0.29
3.61
33.86
-11.6
-7.95
11.42
-140.03
-5.59
95.22
-13.64
32.27
8.86
-25.36
10.49
-34.24
28.72
-20.09
12.04
6.36
24.32
-12.85
11.68
67.67
-266.61
-10.09
-91.1
5.45
7.72
8.87
-13.85
-12.27
1.05
8.52
5.53
13.03
17.1
14.97
-10.81
-183.31
-51.32
5.98
-2.18
5.55
-44.46
-74.84
10.92
20.39
-11.21
-1.65
-38.85
37.53
10.18
-10.57
-13
6.31
10.86
124.76
-84.33
60.11
6.76
-12.42
6.47
-9.35
-28.14
7.63
55.49
11.42
-16.81
-4.05
92.68
1.79
59.19
5.34
29.94
6.62
-14.08
-8.43
-42.07
-291.48
-1
2.08
12.06
60.85
5.62
54.45
-12.65
5.85
-40.43
17.24
-4.6
-3.31
127.1
-12.5
12.21
-12.33
57.22
-78.89
-4.41
-104.73
22.15
2.35
-9.83
14.81
-38.44
4.5
4.86
0.23
-47.24
-5.75
-95.19
7.86
-17.77
12.14
-7.35
-22.37
22.82
-82.17
30.33
16.82
8.38
17.71
-1.92
-13.68
-9.59
0.46
-27.45
11.93
-25.89
-5.54
33.46
12.84
-38.48
-20.66
48.41
82.31
-13.01
-5.2
10.45
-25.6
5.28
-11.16
-0.83
-47.3
2.2
10.27
2.03
-169.48
-20.34
8.63
-87.56
70.23
-96.95
-9.68
-6.37
11.26
-9.76
-2.35
-16.34
1.99
-55.01
-6.26
113.71
-10.99
-16.38
-13.98
-12.6
39.26
55.01
-11.81
67.53
5.57
36.33
-1.27
-11.53
-5.72
-28.79
4.83
-42.71
3.54
-33.97
36.35
-20.49
-58.39
102.91
-5.01
16.73
-44.08
-19.81
12.26
-30.06
12.41
-129.26
-8.84
52.82
-15.16
-10.24
41.78
127.56
-1.99
0.47
8.4
-8.98
59.68
-57.93
-14.88
-11.03
53.19
-108.07
11.09
11.89
10.62
-1.85
67.33
33.76
-2.47
4.47
1.51
-4.38
69.76
8.64
55.07
64.6
-49.27
8.06
63.03
15.46
14.31
31.48
38.96
27.1
46.32
-20.41
2.61
-16.39
46.65
26.62
103.4
-10.41
8.98
5.45
-21.71
-10.81
-10.18
-3.89
-10.02
2.09
38.85
-31.77
14.43
0.41
-23.33
-3.04
-4.1
57.23
11.11
16.52
92.94
-38.85
49.45
11.75
5.74
28.73
89.39
-35.35
-4.97
12.08
-20.59
-2.47
-26.72
36.2
6.52
-9.94
44.63
4.84
-10.49
-19.21
5.13
74.14
92.99
-2.23
1.48
-24.81
-10.8
47.13
14.44
-3.87
-6.57
59.69
-4.05
10.16
-29.08
-30.67
10.57
16.62
-8.54
-11.11
71.47
-171.16
61.41
19.87
-17.96
5.41
82.02
-22.02
-40.46
-7.73
69.67
300.4
-35.71
11.43
3.23
22.4
12.3
-0.58
10.18
2.24
12.57
3.7
-0.85
-130.72
22.93
12.72
55.55
-7.91
-4.93
-34.46
-26.64
67.32
15.77
12.41
-3.94
-13.31
-62.8
-27.28
1.34
146.74
7.74
127.54
-26.42
11.34
14.33
-18.93
11.76
6.82
28.02
21.64
-10.55
-19.53
3.16
-22.22
13.3
3.96
19.07
-93.58
12.14
-9.26
-6.64
0.25
0.31
11.08
12.2
0.53
36.34
-3.56
105.13
-16.41
-115.78
-4.43
9.56
23.28
24.69
-8.99
-224.47
-5.27
9.37
28.69
-3.97
39.21
-98.9
-6.84
56.06
-41.19
-12.43
50.04
4.53
9.86
8.11
-20.62
15.12
45.97
-7.55
-1.32
-6.16
48.69
-24.41
83.34
31.54
-60.26
80.02
3.64
40.12
10.06
2.64
72.36
-10.92
31.55
-8.34
4.07
-59.13
-73.07
-6.47
-151.86
-5.27
115.43
-15.55
8.69
-8.69
-8.99
-9.61
5.3
30.94
0.7
81.34
-26.21
-11.63
-26.83
10.06
19.88
11.93
-41.63
-1.49
-4.6
-1.53
39.76
2.68
-3.95
-35.15
-0.16
124.32
6.45
47.21
-104.37
40.38
-2.65
-8.4
14.44
50.97
-145.97
-9.06
-14.01
-89.61
-51.86
51.69
-24.54
-70.96
6.28
15.12
-46.52
-66.61
29.85
46.52
-29.44
0.44
-14.47
56.74
24.18
2.93
-8.91
-12.65
-34.49
52.7
12.64
25.31
30.94
-116.13
-39.04
27.5
-87.37
-105.72
-3.31
72.17
-13.03
90.51
42.96
-14.43
3.4
1.64
41.09
4.83
-82.67
-32.9
85.21
113.74
-70.09
-11.61
156.9
-59.8
-7.94
27.79
4.12
-69.21
-15.85
-39.55
8.7
5.33
12.3
19.03
10.97
10.48
-14.45
-0.27
11
105.07
-4.92
-33.62
11.51
-12.48
-19.53
38.9
30.69
81.93
11.39
-12.02
-72.21
3.93
30.43
85.56
-15.13
-20.27
-49.07
-2.5
5.54
-3.13
-81.78
3.66
-45.65
-2.63
4.68
-70.78
-6.41
44.64
1.18
18.08
-59.65
-4.15
-32.32
-86.62
-2.99
-6.85
-11.24
-6.72
117.24
29.84
12.49
41.64
-7.09
-17.38
43.89
13.89
-40.47
-52.97
11.4
-103.81
8.07
5.94
7.99
-17.93
-38.5
5.18
-27.35
-24.56
-9.49
-41.91
-2.98
-11.44
34.64
-39.57
-45.87
23.61
9.24
-67.79
1.34
10.37
-30.46
-37.18
-3.15
2.29
2.74
11.66
-1.8
68.25
88.71
-7.18
41.56
-0.09
14.95
-31.15
11.73
3.91
-22.21
48.14
33.56
-96.18
-82.11
-41.64
32.64
7.27
5.84
-33.93
-32.94
11.19
-11.81
7.82
-20.08
12.17
-20.79
9.33
98.79
-17.01
-31.29
-15.95
39.5
18.05
1.73
15.47
-6.44
-7.18
-10.1
-49.45
5.15
-37.37
-1.67
9.65
0.78
-79.16
-5.52
66.57
-78.44
11.74
-5.36
-19.42
26.36
3.52
11.19
-272.01
-118.78
23.06
6.6
-31.84
26.17
5.78
20.96
-144.94
-68.1
15.54
58.42
-42.59
-24.48
8.75
-42.11
-1.56
-6.61
-24.75
-14.44
-35.45
8.35
5.15
57.22
0.74
2.54
3.03
13.82
-39.85
17.62
-22.35
-15.39
0.11
-66.98
2.56
10.65
11.41
4.57
-2.47
32.4
0.73
-146.07
-3.89
36.97
-74.6
-21.88
7.52
5.26
-76.75
-6.85
-14.46
-5.93
29.13
-20.83
-201.45
4.34
0.61
-19.51
-9.31
29.03
77.03
-38.97
-22.09
31.83
23.64
-8.28
-6.38
-20.19
18.63
56.44
7.3
38.41
-8.19
15.38
6.68
-178.49
10.58
128.61
-1.42
-1.43
-46.85
12.52
-2.47
19.43
-1.55
-12.07
67.99
-4.03
42.17
25.79
0.33
35.46
-4.76
6.95
4.96
87.94
-12.31
19.09
2.78
-14.1
10.83
20.13
11.54
-21.35
37.39
57.75
-1.13
-10.36
75.98
17.19
21.17
46.99
146.82
-91.3
-20.6
-3.7
8.09
-6.67
1.76
8.54
16.47
13.03
10.38
40.22
-16.55
9.45
11.29
3.37
34.33
9.33
-180.9
-4.61
-56.61
27.93
45.18
9.01
6.12
-10.94
-18.65
21.99
12.89
48.08
-65.52
-53.33
158.58
-143.02
-35.29
16.16
-0.52
60.93
9.2
4.29
-16.45
28.8
91.26
25.08
-4.44
59.61
-41.62
-9.5
-17.75
1.41
-15.84
33.52
10.5
-47.67
21.78
129.28
-41.1
-87.41
-23.31
31.26
2.91
-47.16
-4.26
2.32
23.56
12.62
-81.36
112.02
-20.9
-30.81
75.37
-135.6
-37.66
53.22
8.73
12.69
8.85
12.67
-28.58
29.66
-13.06
-81.32
-39.19
-2.21
-10.91
-8.92
5.05
9.2
88.53
7.64
9.36
65.12
12.62
46.45
-19.87
-72.19
-4.4
48.2
-29.88
19.94
-2.46
22.24
-0.78
25.15
58.07
4.23
-97.8
7.51
-17.17
-102.63
11.27
-60.1
11.3
-63.64
-129.37
-213.01
-30.45
-0.77
-2.33
42.19
34.73
12.98
-1.6
-4.48
-12.43
46.98
15.96
6.61
-11.57
-78.41
13.16
50.47
19.35
-2.32
52.98
74.09
-1.28
-14.7
52.57
-12.24
13.24
-6.11
-4.36
10.89
12.34
-11.33
-124.09
32.51
41.2
13.1
-70.56
-44.29
-51.28
1.34
-1.35
-2.33
7.83
-6.74
-72.57
89.03
13.96
28.54
2.33
-10.28
29.82
-6.84
-134.14
-10.64
19.89
1.15
13.11
9.97
7.92
71.76
3.14
-11.17
44.75
-41.09
-5.92
18.22
5.08
14.59
-2.79
-5.06
-5.24
5.58
7.61
42.74
-7.85
27.38
-13.9
-13.01
74.46
38.91
-76.62
31.99
0.72
4.41
61.56
-0.12
71.94
-12.7
13.1
10.47
11.67
-6.57
17.12
-89.26
-91.86
47.54
-81.73
10.24
20.79
1.27
6.75
7.72
-27.01
-56.62
-73.54
-29.93
108.79
19.76
0.9
-5.82
-3.37
-95.16
9.5
21.79
13.19
25.54
-0.25
50.19
1.17
21.35
45.16
18.2
24.7
-55.66
16.86
45.53
-36.26
-10.65
-69.36
94.26
-1.4
-34.89
-135.52
12.36
-193.14
-17.62
30.27
-4.69
-32.52
-20.01
10.47
31.61
-12.58
115.65
12.56
12.59
-31.5
-29.28
65.01
-123.05
6.05
-22.6
31.81
0.09
-35.35
-7.17
140.01
-2.76
8.52
13.08
-2.56
-33.5
50.37
4.28
39.18
8.04
11.17
17.97
-62.95
-20.61
7.64
-15.75
51.46
12.33
12.01
105.56
-124.23
9.11
-2.11
79.99
-11.64
29.35
-29.61
-53.85
19.7
-31.66
7.73
21.43
5.13
8.46
-11.3
23.05
4.97
17.18
-30.19
-9.38
9.67
-12.29
-8.06
-7.41
-31.26
10.07
99.38
8.88
-63.28
-42.98
7.98
8.84
10.24
-162.31
-49.15
0.27
16.68
38.44
106.87
-1.71
5.22
12.73
-38.78
6.88
-8
-157.33
44.58
0.15
3.58
7.63
77.76
138.37
-12.81
44.98
28.32
-9.25
7.88
-14.27
27.84
-52.55
-13.27
-27.82
-1.42
4.99
-10.29
11.6
7.11
9.55
-38.42
4.95
78.85
-3.45
0.13
-63.51
38.35
-34.88
17.92
9.46
-47.03
38.6
2.09
-4.64
31.46
104.5
48.36
-121.15
-54.07
-0.22
-5.75
-9.1
-22.65
-50.65
197.08
-14.82
-11.26
-8.28
33.93
-11.18
-2.57
-15.02
-3.04
28.96
30.1
61.66
7.7
10.45
-36.11
-32.86
91.24
33.62
-19.69
38.66
-49.43
1.44
46.31
0
70.28
-55.26
8.34
-9.34
2.87
0.75
14.3
-4.9
48.48
56.91
-11.28
-8.58
-24.72
30.12
11.58
1.44
14.24
14.33
-8.17
2.96
-14.61
3.69
8.9
18.95
-187.26
0.54
32.44
-60.57
3.13
-144.16
4.98
-91.33
13.29
2.63
47.7
-129.98
-45.2
-9.5
-2.45
-1.43
40.2
-80.27
0.47
10.38
-9.14
-10.16
-23.2
6.79
-9.63
91.97
2.29
58.36
-10.34
33.56
123.11
7.1
-11.02
2.13
158.29
-6.08
-26.5
4.87
69.61
6.87
-1.9
90.16
11.24
-13.83
-89.39
60.67
30.43
-24.63
-9.02
3.95
-66.3
11.22
-25.34
-2.42
-8.59
10.05
9.88
4.65
-10.65
-1.37
-5.34
169.06
-21.38
-12.89
9.06
-1.37
-30.33
-80.85
4.29
-8.85
65.86
-10.82
-1.17
73.56
-54.28
8.68
-109.29
3.56
-27.91
1.59
-10.61
45.68
22.1
0.66
34.56
-94.62
-22.17
-41.78
-2.39
61.94
9.03
-6.3
22
67.45
-77.17
5.4
4
-6.41
-19.34
-5.05
53.06
-33.86
61.46
83.34
-24.76
-2.82
-83.65
-12.69
-9.33
16.48
-25.74
30.01
-62.15
-2.32
3.69
-15.87
10.81
36.47
9.34
-3.91
36.29
-1.83
-1.08
74.08
-10.38
-36.39
5.71
-20.86
4.37
1.63
5.42
11.31
3.4
-27.55
32.15
12.56
-6.58
35.19
-0.47
-41.18
11.09
-82.91
-6.13
12.52
61.29
5.53
14.11
-27.39
15.14
-12.06
58.74
-21.29
46.03
-83.77
11.61
-40.89
68.14
20.8
34.31
-45.05
-36.13
63.42
-121.04
113.2
-8.86
-45.93
-39.27
-3.9
-29.66
-30.57
-7.85
-0.77
-58.02
-20.29
14.95
32.74
-11.64
100.56
-12.43
123.07
-24.81
-11.92
2.38
52.9
-13.13
-1.83
60.08
-2.96
-0.12
-18.01
38.5
23.93
-34.4
-33.63
-72.29
-79.97
75.55
0.42
2.45
42.35
7.12
-9.4
-27.16
12.26
-52.77
12.77
-5.21
-31.4
2.99
-3.02
12.42
9.36
0.65
9.9
54.77
-74.19
32.21
-11.53
110.68
12.59
61.49
7.05
-7.77
20.36
-47.08
-2.2
-54.74
-17.64
-35.38
-7.66
8.67
-138.61
46.69
8.86
-1.27
18.09
-4.23
-49.33
-27.73
48.65
-5.25
24.07
-8.79
48.92
-6.21
55.92
-5.02
-77.35
1.8
-31.72
-59.07
32.6
-3.31
8.59
-10.45
-9.49
8.42
27.21
-118.92
2.25
0.45
24.05
69.2
-17.27
78.56
14.63
43.99
-12.19
4.91
-6.34
41.48
19.15
-8.04
8.23
1.97
66.43
-12.05
9.85
16.5
-63.97
26.83
-1.8
34.86
70.99
-21.79
0.33
-5.16
-5.57
73.87
2.33
4.77
-56.03
-2.89
-0.71
-2.41
14.47
97.88
-1.13
-12.08
-66.09
2.47
28.42
24.62
-33.64
-41.84
12.45
-48.29
-43.88
20.88
-1.8
27.74
-7.74
-14
10.16
-5.75
-3.35
-38
4.36
10.16
-10.47
29.83
-20.48
-56.66
-0.63
55.66
33
69.39
7.69
0.7
111.76
-15.27
-13.89
44.78
-4.1
6.3
1.34
10.14
-18.01
-128.12
-0.16
-54.72
58.92
4.03
-19.89
7.29
38.62
-0.12
27.69
26.35
-2.53
17.35
131.88
9.3
19.28
-12.7
-77.02
-38.22
-32.58
-40.89
-25.35
-16.38
-8.97
66.44
-6.98
61.17
-147.06
24.03
11.25
-4.88
-44.73
-9.7
0.49
-6.1
-11.41
-4.14
-5.35
59.69
34.81
-31.05
-19.52
-2.51
9.84
6.38
-46.08
69.87
101.47
-20.84
-43.54
-7.47
-7.41
-25.5
-11.65
-5.64
1.53
-2.54
43.31
-70.16
12.91
5.77
5.28
-0.27
76.35
13.29
3.25
-67.07
63.11
-38.62
-11.09
-35.3
-25.24
-7.08
-104.73
10.96
5.27
-10.01
95.28
-101.8
-52.85
14.24
3.72
-15.38
1.65
-15.55
11.45
0.59
-13.59
-14.57
87.55
0.62
8.16
-55.63
-2.85
-16.49
-14.89
-64.87
101.78
3.19
-29.44
-10.5
-12.18
-11.19
14.53
-59.51
-28.41
-51.11
-47.71
-149.41
-8.65
117.64
12.78
-3.07
38.08
-7.67
-1.23
-5.54
-14.87
-13.86
14.85
-20.39
80.28
-7.38
14.22
82.61
49.79
-287.72
45.56
22.79
-6.86
-8.24
2.85
32.3
15.07
128.16
-18.65
-40.37
-24.58
81.51
-2.43
1.03
11.72
-4.13
-163.45
10.34
4.43
-60.81
7.49
24.17
2.23
35.08
44.63
-3.62
12.07
-28.26
3.96
-5.93
23.18
-24.04
1.12
27.43
-11.58
2.82
35.21
-29.07
3.94
51.82
22.8
-4.78
-207.46
-99.47
29.02
7.56
-24.55
-24.02
5.26
25.46
0.24
-96.83
5.4
-493
4.49
-7.72
-9.78
1.04
-17.57
-161.77
-85.59
-188.83
-143.19
27.73
-38.5
-3.06
-2.96
-12.4
-3.81
-2.44
-0.76
158.41
81.94
17.32
36.37
-45.28
-31.85
-71.22
2.76
8.37
91.74
34.1
55.55
19.88
-33.33
9.07
-36.44
-54.07
88.36
13.99
-34.17
-12.47
-3.13
19.44
-87.84
-8.9
19.51
-70.34
-38.11
20.83
12.62
-17.57
0.84
-59.91
10.49
-7.5
54.5
4.53
32.07
32.63
-55.46
46.53
7.99
-3.42
-145.26
-31.68
-5.84
64.07
10.27
-9.36
-68.45
8.19
-9.92
7.51
-16.68
25.33
118.05
86.2
51.77
96.92
-86.97
16.39
35.53
-23.43
-40.76
9.58
19.4
-38.8
-1.41
82.62
44.93
4.85
13.81
-20.81
12.44
22.02
18.82
0.47
-256.88
-28.5
0.09
7.01
-63.78
-17.75
-18.57
-113.66
142.04
-11.16
74.59
93.07
-24.48
-41.09
22.32
-10.42
2.11
-16.35
29.87
-11.84
109.37
-11.31
45.9
1.52
5.43
-78.18
-3.97
-30.64
-245.98
51.61
-98.48
17.03
54.86
-22.96
-58.19
-0.96
46.16
-4.16
-8.68
82.31
-54.24
-3
-10.24
31.16
-1.96
-30.52
-4.59
-29.38
9.88
-10.87
14.18
-104.96
-109.92
36.26
14.99
28.63
-15.8
-7.48
123.51
12.61
2.43
11.34
25.72
4.9
-9.92
6.57
6.15
13.62
-10.19
4.11
-2.13
0.22
33.98
-40.58
39.81
-1.9
6.8
1.66
-110.66
-6.89
-11.53
4.28
0.74
-11.1
119.31
0
-15.25
139.82
-21.5
-25.1
15.27
10.45
6.43
11.73
-9.8
8.63
42.22
-77.9
-36.19
34.36
-7.8
1.87
-5.44
-9.93
32.36
19.32
-9
15.22
-5.69
10.66
0.1
76.35
10.65
53.88
34.06
-9.65
-17.96
68.32
63.12
67.75
-54.43
33.48
19.02
-34.58
71.41
-5.76
76.79
-3.96
4.54
59.99
-49.63
13.34
11.53
3.37
-135
12
-10.33
53.8
-15.63
-6.42
14.26
-11.56
-28.32
4.76
-55.4
2.82
3.68
-18.12
5.57
-74.02
-2.25
2.11
-14.72
7.98
98.57
24.87
-16.39
5.5
-3.19
-6.23
22.13
-8.04
23.12
45.55
-28.27
14.61
-117.58
3.27
71.68
48.24
2.37
-3.76
22.23
-0.87
-10.3
-1.36
-28.85
-21.51
-4.79
-10.44
8.96
18.18
-79.27
12.51
-69.82
-53.26
-40
-42.75
-4.91
-60.73
-8.25
26.77
75.84
58.94
34.06
-11.17
11.53
12.53
26.76
-98.16
-10.61
-44.66
-66.19
-18.14
-6.89
-35.2
42.52
10.26
5.63
-33.73
-9.89
3
-14.16
9.33
-11.77
-93.61
-46.8
33.31
-33.87
-1.25
-4.89
29.84
11.94
-6.62
2.62
91.39
8.1
-21.6
-7.74
2.83
-78.15
-30
74.6
-26.47
78.27
83.45
151.99
-8.52
13.36
16.77
-17.54
41.58
39.27
-2.41
26.79
125.28
92.04
-34.3
82.64
6.19
55.94
10.62
162.87
53.21
-9.1
-9.52
-11.69
16.74
-34.06
55.06
-64.52
10.38
38.89
137.85
-61.55
-83.85
8.51
1.11
-21.01
1.22
7.12
-39.42
4.2
0.29
-12.78
-120.89
7.7
-24.6
-22.26
73.68
-42.53
-15.29
-15.57
-81.04
0.47
34.45
69.45
9.49
66.62
8.68
-5.43
1.84
-41.95
46.41
6.58
-2.56
41.88
-78
-80.99
-1.3
-2.59
-6.29
10.91
22.56
10.72
-219.7
6.67
7.02
11.48
-10.64
-18.27
6.19
14.65
-8.39
16.68
57.92
185.96
12.19
-9.38
-45.38
-8
-8.67
10.33
86.97
87.25
-2.51
-4.8
8.63
119.5
2.56
-45.69
-7.29
61.71
66.74
-107.36
42.31
-9.45
35.59
-45.61
-131.76
-13
-276.03
-4.07
1.84
9.08
-6.07
-101.54
51.21
21.53
2.88
-5.97
22.82
6.51
-19.4
92.05
-5.02
18.61
-14.86
16.55
-15.88
14.86
8.55
-14.17
-49.81
-5.15
-0.18
-3.94
70.19
2.21
-60.73
30.41
-11.55
5.39
5.44
-4.66
1.76
-10.78
4.56
7.57
-22.34
49.13
-41.43
0.08
0.49
-16.56
-112.16
7.71
-30.61
21.39
-38.04
-12.94
-5.4
13.13
11.38
-20.77
26.67
-70.4
-16.22
20.55
-7.36
26.5
-1.17
54.51
-15.94
-16.3
100
-3.54
-6.31
11.75
14.04
47.38
-9.88
39.4
44.4
-1.27
-3.33
-15.43
4.04
14.2
-5.84
-2.2
31.63
29.27
-1.02
5.87
-6.56
14.53
-9.41
10.47
-84
40.33
-6.89
11.81
3.26
10.89
-19.06
104.52
31.77
-106.58
-29.94
152.56
0.8
-4.68
54.9
-16.14
2.49
-17.78
55.51
-7.28
7.33
1.64
7.46
-27.59
-10.49
155.95
-6.62
-40.84
-6.5
3.21
2.92
-6.01
13.86
-65.79
33.74
-64.29
12.84
1.7
75.28
-10.82
31.11
0.9
5.58
5.18
-7.4
-14.3
-60.08
14.68
70.33
99.27
35.92
51.47
128.05
89.59
-4.77
8.38
-4.04
7.42
18.8
24.69
6.84
39.22
-9.64
-63.9
-6.13
-4.43
-2.02
19.17
14.52
13.8
-12.48
131.61
-2.2
30.68
-27.18
6.95
1.58
-2.18
9.65
60.01
-13.52
13.05
79.74
-27.37
4.4
-4.92
43.64
-13.35
-14.35
-40.5
-9.54
6.22
-19.9
82.91
5.71
11.47
2.25
-33.89
16.34
-10.46
2.89
-58.43
-33.53
-1.5
-18.39
40.73
8.95
52.57
120.42
-5.8
-77.79
24.37
-2.93
6.89
5.87
-10.15
-60.47
43.88
-3.71
10.51
98.78
-11.23
-47.68
74.51
-293.7
-10.88
-6.28
-57.34
1.27
-115.59
55.11
17.4
33.81
40.43
15.9
78.33
-15.37
42.01
-4.73
11.47
59.67
-40.18
-5.13
88.3
43.52
-19.19
-78.16
-89.85
-21.14
-8.33
-4.08
21.32
89.77
20.28
47.33
45.09
11.76
36.25
-3.16
94.51
9.01
5.93
-17.1
-12.05
-26.91
-8.3
-8.19
26.81
-5.42
15.74
11.94
-138.51
11.23
1
4.83
-14.19
-136.36
7.07
-6.34
-14.57
83.25
-66.14
56.74
12.07
-41.82
11.63
-9.53
48.81
8.4
9.09
143.94
58.07
-13.69
45.7
-81.22
125.61
5.1
-19.88
9.39
-7.45
-6.72
47.62
2.81
45.59
-10.68
-56.02
-72.95
-9.39
7.67
54.56
218.76
19.29
23.22
110.19
12.8
-12.7
15.61
-30.44
-0.45
-61.45
14.69
-322.79
9.72
-1.35
7.01
20.33
11.33
7.92
-14.92
12
11.78
-31.13
30.1
-55.45
-26.63
-10.85
-5.99
-4.73
3.18
-22.29
7.39
-93.5
3.84
-3.84
11.77
-10.64
14.58
0.79
-10.41
45.68
18.36
-10.58
-3.69
51.84
-4.57
101.2
41.49
23.49
10.66
33.1
-7.64
-12.35
1.86
-7.71
18.64
10.95
2.64
255.45
-16.62
13.78
-107.44
-11.77
14.09
-3.3
7.57
7.25
15.84
56.43
-49.4
33.5
-7.95
-38.18
10.69
45.36
12.76
-107.47
-19.33
-26.84
40.2
18.79
-155.65
-54.44
40.41
17.11
7.66
17.1
-0.71
-10.73
2.65
5.34
26.84
-1.95
-76.09
1.91
11.39
72.66
-90.16
2.74
77.35
-4.79
-24.42
-20.03
-114.19
-9.07
15.64
-8.05
-20.97
-5.12
-168.47
23.05
-63.53
29.91
4.22
2.19
73.54
-10.81
-62.19
-70.09
51.43
-20.36
66.81
92.97
-16.53
39.55
5.5
-12.03
7.75
22.84
-97.78
-40.75
-55.1
13.65
129.01
-10.28
-23.87
-11.4
78.97
10.69
-7.98
2.19
-12.16
8.65
9.42
4.4
46.87
-18.77
-90.69
-101.47
-6.01
37.86
-16.62
-50.86
16.96
-8.5
-3.3
-1.05
-20.03
123.6
-2.51
-6.65
19.18
-3.91
52.66
52.03
-8.51
-5.59
-18.11
-63.85
3.73
113.57
-55.46
-1.84
-91.98
68.15
21.29
-45.25
0.86
6.64
-27.06
-26.21
25.87
3.48
-82.27
31.49
-8.16
67.9
-3.29
-87.78
64.15
-9.55
12.07
21.32
96.21
-12.55
-101.41
-13.44
-15.81
-66.42
-7.44
-58.31
61.11
-9.76
2.68
48.57
9.26
85.98
2.19
-3.74
-21.64
-5.12
-26.22
-42.47
5.7
-0.22
-0.48
-21.79
3.68
9.83
28.07
-7.09
14.31
0.47
-39.45
93.25
24.6
-9.36
-8.57
9.18
-13.91
4.67
-58.89
5.24
-6.08
19.95
14.67
27.62
28.32
-7.28
4.27
1.13
8.44
26.79
16.48
16.87
6.18
-16.04
7.73
-69.27
7.6
-2.59
36.65
-8.77
34.87
-3.33
-5.75
105.69
1.62
3.25
5.88
-3.67
-8.25
27.04
17.44
18.61
-3.4
5.55
7.54
7.1
22.52
55.96
3.8
-20.78
6.43
-10.63
-11.74
-41.27
2.41
-72.55
-11.24
7.93
68.55
8.28
32.26
52.58
-4.12
64.37
4.86
71.41
-13.3
5.05
-5.67
-70.56
-20.91
-3.62
3.56
2.49
57.2
-26.48
-8.58
2.59
-5.93
90.45
8.18
-24.34
31.45
-15.5
42.26
65.68
-24.82
17.08
12.59
71.55
50.37
-19.63
-35.67
8.87
-60.75
-7.53
5.49
-4.47
28.49
20.16
6.78
-16.27
-1.03
-1.55
-34.75
39.62
57.55
7.41
0.18
-6.25
-86.22
5.84
-98.63
19.51
-42.75
-39.56
-11.96
-95.08
7.13
27.36
47.39
-0.85
88.46
112.37
-43.19
12.41
-2.26
78.59
-89.39
-1.29
-20.46
15.35
76.72
2.1
5.89
59.87
180.14
-189.27
-36.59
102.47
23.24
-5.1
48.72
-6.65
-68.18
-3.95
-2.33
-6.9
-9.07
-12.95
-3.29
-16.16
-51.1
-6.53
-0.19
5.14
43.86
30.52
-0.04
-120.68
-6.17
15.77
6.31
-55.95
-68.88
-62.13
20.88
11.09
-10.2
7.38
-12.05
-10.6
-8.1
16.83
-45.31
-24.61
65.22
-11.15
52.6
-15.25
-2.63
-5.78
-28.46
6.59
-59.09
-33.79
52.84
-2.59
-7.72
9.73
12.01
-48.76
5.19
-13.34
8.9
-0.62
61.47
20.04
-12.5
-49.41
-3.07
-7.58
-0.95
-3.06
63.21
0.04
0.42
-65.27
-14.35
-0.17
-57.18
17.91
-20.15
-28.91
-118.43
30.64
-19.74
-20.69
-90.86
-5.38
-4.96
-85.18
39.41
-6.08
-13.46
-5.93
82.49
-26.75
47
35.17
16.7
-7.37
-28.5
14.93
-5.42
-142.12
-3
1
9.58
-36.96
-13.1
37.05
-25.39
17.22
-65.1
45.79
5.62
36.3
4.65
18.56
34.13
-71.36
11.72
0.25
2.44
10.19
13.67
-8.02
126.08
-13.96
-6.36
34.45
4.21
-100.95
4.23
-7.66
43.76
-34.45
-12.91
-21.45
-11.6
-10.77
-161.52
2.36
45.99
51.72
-20.77
25.77
0.34
-2.07
9.63
8
-45.43
-32.01
-24.83
6.93
-20.08
-6.79
-1.7
11.2
8.67
18.2
8.08
-16.87
-1.53
0.13
0.21
3.22
-15.7
-5.62
-9.55
-2.02
46.21
-8.25
101.39
10.4
-41.62
6.27
-18.88
-13.7
1.34
-9.14
-16.47
-11.42
-8.69
10.93
13.13
-7.74
-5.62
14.81
103.08
-83
-17.97
-133.95
-26.58
9.38
11.91
-21.2
-0.17
16.7
17.91
-110.09
-35.49
-36.39
1.51
-71.78
0.69
-30.86
4.04
-63.66
3.24
29.29
56.72
24.85
19.67
-8.39
-11.21
-35.57
-6.45
42.26
80.88
-120.06
73.15
-8.99
-3.43
-4.05
6.66
-41.8
25.73
14.77
4.95
-21.33
6.12
15.87
11.63
-25.75
-5.9
-3.74
53.31
-1.17
0.63
9.37
2.46
47.28
12.13
9.56
-11.49
-6.24
10
-31.76
8.24
-83.9
71.69
-10.81
-23.67
-15.84
1.06
38.75
17.77
54.41
52.81
-11.38
-11.4
-90.31
17.15
19.22
-125.84
-27.09
-33.5
-5.17
-12.36
1.37
29.29
-6.76
25.38
4.31
17.97
-1.38
-8.8
-3.5
-68.24
101.2
7.74
6.35
-6.25
-40.43
-13.78
74.38
-60.63
8.65
-25.73
-1.96
-15.31
6.78
-9.14
6.16
49.17
33.1
58.48
-56.49
2.38
-124.17
-9.71
7.33
-18.32
-16.63
15.93
-59.97
3.83
-9.22
-171.16
3.4
-6.87
85.17
177.99
-40.52
2.14
1.66
-15.31
23.54
6.99
66.77
-1.19
31.6
6.47
35.28
11.36
11.39
-9.44
8.58
-17.02
9.18
16.78
-11.7
-17.22
47.04
3.61
11.24
3.58
106.73
60.32
8.76
23.34
-2.18
53.49
-11.1
0.9
-43.69
-8.93
-12.39
-5.9
31.58
-2.3
-19.75
-36.72
-213.72
39.36
31.27
-6.69
66.56
36.82
17.4
-0.48
-35.09
24.18
73.48
22.47
-150.64
-94.11
-60.49
-10.3
2.24
-8.51
10.05
88.78
-12.71
9.36
1.64
31.33
-83.1
-2.52
-7.99
75.96
-0.29
8.38
70.68
-19.4
-29.53
12.64
-33.94
-45.43
-17.18
-91.64
-5.68
49.67
47.49
6.95
48.2
-43.12
-118.84
-34
26.84
-196.67
-22.3
7.93
88.21
-13.6
0.91
-18.84
2.12
-59.54
59.94
4.71
11.37
31.46
132.15
-32.8
-20.32
2.36
22.51
11.16
79.35
24.68
-17.03
13.8
3.69
5.69
-9.72
21.69
-9.18
51.21
-19.25
11.66
-18.65
-9.18
6.86
36.82
44.48
-9.52
-21.31
13.9
5.7
41.03
-1.83
1.64
-10.48
-9.6
-38.86
-67.26
-3.26
10.49
158.52
54.9
-32.23
6.91
-13.33
-10.14
49.86
-0.43
-32.2
5.87
81.99
-10.42
-3.9
-16.44
24.32
6.64
-52.37
-17.96
16.2
20.74
5.56
74.78
66.94
80.88
-81.74
-2.84
-24.92
54.14
-10.97
-90.93
8.99
-10.79
102.1
30.9
4.57
16.64
-18.83
17.59
38.71
-61.39
5.81
12.26
-7.72
-2.33
0.37
-15.5
-66.96
31.8
15.88
-0.36
4.02
16.81
0.16
49.25
-30.25
-7.07
-11.95
-7.78
-6.89
-20.87
-9.04
11.68
14.17
34.88
-173.88
92.06
59.99
-21
-15.85
-249.88
-14.21
45.14
42.8
-114.32
-18.01
-32.7
37.95
-0.82
-5.35
-6.2
-4.42
1.93
81.28
19.01
25.37
8.88
0.01
49.06
16.84
-13.35
38.6
-16.67
12.78
-83.49
-7.94
20.15
16.22
84.8
-1.5
-22.94
10.88
4.48
7.81
-6.86
-66.23
-2.84
7.12
9.8
-7.4
5.46
10.57
-42.89
9.6
-84.13
-66.41
-5.55
21.33
11.76
16.84
-5.84
-83.11
9.53
15.47
2.33
88.46
-8.3
-6.74
66.09
-42.1
12.87
11.54
8.43
9.34
7.08
-23.92
45.09
-190.18
-38.02
9.83
81.64
-44.41
-26.68
-38.5
-33.16
11.29
64.43
-24.65
-28.05
5.12
8.31
15.9
9.65
7.29
1.67
16.51
-10.24
12.99
24.15
-19.84
14.21
-53.11
81.3
-9.55
17.82
-22.15
4.23
-81.48
-187.23
12.68
9.09
-138.66
7.23
18.58
-3.71
-10.82
50.74
49.2
-12.12
-11.19
-10.25
8.47
9.18
11.4
-25.34
49.76
-15.04
-11.25
14.45
10.94
48.22
-8.38
15.96
44.22
21.85
-6.93
-8.24
0.18
-98.67
3.51
-76.92
3.95
5.46
16.56
-1
1.42
38.88
8.48
7.52
59.63
-16.64
3.01
-64.32
-16.25
58.44
2.82
124.84
30.61
40.57
16.55
-10.61
-62.75
9.78
-121.55
-124.78
-20.26
270.66
4.04
-110.78
43.34
21.81
-81.44
4.02
-91.78
-4.91
160.53
-40.48
31.4
16.46
-19.96
-120.55
156.06
-20.36
-21.25
49.26
-2.71
40.33
54.45
18.85
-13.64
39.95
-4.81
-11.84
161.84
-4.71
-57.56
10.91
-30.77
-33.81
-0.35
-71.75
30.32
1.48
9.72
-104.25
-13.24
-38.49
8.14
-20.9
-10.49
-6.79
-8.66
-11.7
-10.65
-9.52
-5.97
-316.05
11.96
138.54
14.57
-9.98
24.77
49.27
66.93
-24.87
-6.73
-7.86
47.71
-121.98
22.72
-29.76
-30.5
-4.53
9.69
-26.58
-30.31
-6.11
12.21
-108.25
16.48
7.14
49.73
9.36
55.59
8.07
3.13
10.12
-13.33
-125.6
5.86
-88.5
3.46
-1.31
80.73
-74.43
17.35
-47.3
6.67
-8.89
-18.28
-5.6
0.59
-90.2
48.28
8.6
-11.8
80.44
-16.7
-3.33
10.32
23.49
-9.91
-45.6
12.55
-14.39
0.35
-5.24
60.22
-21.03
-66.26
-113.81
-13.8
-37.52
24.25
29.19
82.6
38.34
-25.95
-6.11
-3.49
56.95
-49.37
-2.98
-15.01
-11.06
-2.53
6.78
-12.56
-1.09
3.11
-277.72
4.52
61.19
4.64
13.12
10.52
-3.53
-2.58
-2.98
15.27
8.88
69.81
-15.47
-13.76
-37.57
4.73
-6.6
56.18
-35.62
-10.47
65.79
-60.04
-4.5
-24.43
-10.14
43.79
43.42
-34.68
-10.14
-404.22
-11.5
-104.85
0.1
69.94
-5.61
8.09
-3.74
-4.34
28.4
15.33
22.9
6.99
-10.56
-5.15
-10.83
-10.01
-17.34
-89.82
0.8
5.03
4.2
1.77
-9.7
6.49
-6.2
62.06
-22.41
13.21
-2.53
6.19
80.84
-3.99
37.05
2.98
12.78
-5.91
-13.78
39.19
-1.05
13.66
-12.15
-3.21
10.32
6.18
107.8
-7.19
2.13
-12.85
45.29
-5.33
-3.73
37.91
11.89
37.39
-54.48
-3.47
4.03
11.17
12.7
10.78
-27.79
42.74
-5.24
70.94
24.82
-17.97
36.52
-18.05
16.42
-122.07
-124.43
-30.47
-4.17
-8.76
27.26
19.64
65.78
15.96
100.77
-5.89
28.05
-4.62
-227.86
1.33
-3.27
75.1
-4.81
17.1
3.97
8.94
8.54
1.56
95.02
-26.42
4.16
-26.03
-5.58
-9.29
-6.1
-35.8
58.19
12.87
8.2
17.35
14.02
-14.46
1.27
-18.22
124.52
3.45
-22.63
22.38
-15.92
11.8
-9.4
103.62
-19.24
-469.27
-6.19
-9.62
-16.58
8.56
12.84
29.21
-1.64
12.73
-34.13
45.11
6.36
-7.98
5.75
48.58
-36.36
55.52
-12.94
8.99
-99.07
20.68
-15.42
-80.36
-10.83
10.24
1.51
24.08
51.45
-5.63
-10.28
-33.95
4.25
-86.83
-9.03
54.82
-38.68
39.37
-37.43
1.75
-20
-16.05
3.33
-2.03
10.35
0.6
5.14
-1.76
-211.33
5.52
30.83
47.08
20.58
-94.31
5.72
12.01
4.04
-23.87
-13.68
-2.96
45.48
0.47
30.53
-11.87
15.08
2.28
45.83
15.33
7.31
10.57
67.01
52.38
-16.67
-5.94
88.57
10.01
16.45
10.23
26.12
3.93
28
23.26
13.48
33.7
17.8
-26.19
-0.88
-7.72
-22.25
84.67
-4.39
17.06
16.8
-8.35
-25.34
-7.55
9.63
5.65
48.85
-60.24
61.21
9.81
38.49
94.99
-6.3
-42.26
7.82
2.78
11.7
-135.16
48.74
17.36
-9.22
23.71
-109.49
-2.03
-10.16
51.23
-31.57
0.6
-33.13
-30.58
57.73
2.29
-17.41
-2.33
-0.25
96.03
39.25
-50.42
16.15
6.54
-49.19
-0.54
30.91
10.28
-14.92
-74.25
-16.44
21.07
-10.43
17.33
2.47
-15.42
49.12
4.33
34.8
9.87
-8.55
-21.37
14.39
12.05
60.59
9.4
65.5
22.17
-6
-77.28
-10.58
21.33
-9.14
6.72
-9.22
-4.41
127.79
-7.13
45.7
32.8
-13.67
7.65
-4.28
69.78
-19.7
-33.5
38.59
-48.53
-10.35
65.75
-34.73
44.47
45.88
-6.52
9.42
9.07
10.22
8.79
9.8
-47.67
29.25
-11.68
6.16
12.85
129.88
-51.6
6.82
32.43
-2.09
7.35
6.41
-17.75
36.31
-41.94
4.82
-34.16
-11.48
19.95
55.77
-7.26
175.01
59.51
9.04
-12.83
-39.75
1.08
-2.95
2.07
-132.48
70.74
0.87
32.94
17.47
70.63
-144.5
56.26
-81.4
80.99
-20.99
22.18
-56.67
11.29
-50.47
105.83
21.27
70.49
-4.64
53.12
-41.36
-11.38
7.21
7.85
-1.99
71.46
11.41
30.56
61.15
67.36
24.26
-36.07
-16.23
-7.98
-33.3
9.04
7.32
-68.96
-3.5
-6.3
-10.37
0.93
9.53
16.22
-29.8
-9.82
12.5
14.07
-67.52
17.13
28.28
10.15
5.38
15.43
-122.48
-17.88
8.91
15.41
-4.83
-4.85
136.89
17.34
-29.14
-8.76
0.09
-16.57
9.03
71.6
-70.25
-9.27
-0.56
29.4
-17.44
-0.27
-171.7
-16.93
-79.38
75.95
7.22
39.27
10.66
-5.27
4.57
35.19
-4.94
27.71
-6.27
-15.68
-111.94
-47.24
-56.12
1.46
58.17
-57.84
-102.33
-53.52
10.27
-6.02
-5.84
-14.79
7.1
23
-24.49
62.19
130.36
7.26
59.07
-7.4
-46.37
-18.65
-52.61
-9.56
-59.69
-12.58
-67.38
-15.01
0.84
2.58
25.25
-5.99
-6.34
7.39
-5.21
7.96
-7.21
-28.54
3.11
-0.82
21.2
10.07
8.13
24.79
-5.48
7.15
9.77
-113.83
-30.47
15.67
8.96
-1.95
15.3
9.27
-17.16
-23.33
29.6
16.77
-50.75
91.78
-64.05
-5.76
-8.88
2.36
4.4
7.38
-90.47
3.04
-3.46
17.91
-13.41
35.43
-8.53
-45.42
-52.84
-9.7
41.21
-0.62
36.51
-7.6
-264.25
-7.16
11.71
32.35
55.7
32.01
10.69
-99.66
-95.3
-4.36
63.82
2.87
-7.78
10.73
-9.19
9.57
-9.59
13.77
12.89
12.41
78.6
31.82
-48.33
-15.37
-10.5
59.2
-3.14
79.78
-20.37
31.43
-38.15
4.79
-36.13
-8.3
59.16
20.82
-9.73
-94.9
-1.65
72.83
-10.15
-57.32
-3.51
-0.81
-2.6
-4.04
-4.96
75.66
-4.35
106.01
180.45
79.36
-3.23
7.55
53.8
-4.42
7.2
2.33
-0.36
-106.62
-40.34
4.35
11.01
3.53
96.03
43.67
-37.71
39.2
10.81
-8.25
20.79
-6.9
2.41
34.37
48.94
72.57
-67.66
-12.93
11.05
-50.36
-5.51
-58.42
-0.57
-0.42
-1.11
-13
7.05
16.65
-3.62
43.28
-0.42
-12.46
28.13
6.23
-40.49
3.98
16.57
29.31
-7.98
-10.59
-2.16
-6.67
18.82
-6.37
-45.4
69.07
34.73
115.33
-97.2
2.21
4.81
18.4
-85.08
76.83
37.6
-0.87
2.19
-16.42
0.97
-5.56
66.89
8.71
0.42
-177.65
61.88
-17.87
19.04
10.19
4.16
12.83
56.28
11.44
6.47
4.73
6.68
-24.83
15.28
-9.59
26.88
-33.59
-63.84
-10.73
225.64
-48.31
4.76
-5.12
-4.23
-146.32
52.46
58.93
74.95
36.88
-10.97
70.64
18.49
29.66
-24.94
8.28
8.69
14.12
-19.57
62.76
-165.36
48.96
-51.63
26
0.77
14.32
14.6
90.8
-6.04
7.62
60.23
35.28
-19.51
-5.95
2.14
-30.88
26.81
13.81
63.54
-91.53
-130.14
48.99
-19.78
-10.91
-0.31
86.53
-23.38
-16.02
14.36
93.44
-6.87
-13.21
52.79
-25.69
-9.04
-109.01
68.9
6.04
-4.9
-6.71
59.49
10.22
-8.33
-10.55
26.26
37.45
5.4
-53.57
28.24
-91.28
68.43
-26.6
11.61
32.28
1.41
-1.94
-1.81
-18.32
-9.56
-6.04
-54.24
-110.63
-9.19
-23.95
-2.6
83.02
12.9
-7.36
-47.6
-2.7
84.49
-8.04
49.74
-1.76
10.86
2.07
27.01
-28.05
8.68
11.24
7.86
-11.29
24.84
32.98
23.62
0.53
-2.83
-7.59
-66.63
8.13
24.61
-18.08
-21.28
9.9
-9.67
-44.63
-8.83
-45.15
-6.29
7.76
8.9
-8.56
16.82
1.35
-173.8
-9.78
-8.65
7.36
-7.9
-39.2
-4.65
-61.95
46.31
-7.57
5.66
18.11
0.98
-80.27
24.4
43.19
-136.71
-159.71
23.75
-5.58
49.46
52.46
-0.44
105.68
13.84
-12.35
-5.01
-87.54
38.99
-40.09
32.84
-1.97
-9.64
-25.13
-4.72
-29.26
-17.59
10.8
53.36
-54.98
-61.9
6.02
-7.88
-9.07
-24.16
-5.68
78.43
-45.83
-15.04
-96.19
-9.83
-8.99
-9.91
6.1
-0.77
-2.46
10.43
1.96
-7.76
5.55
13.91
9.07
-20.79
-32.11
-6.22
-12.22
2.96
53.77
-0.68
12.11
-82.42
-12.22
-4.4
100.09
3.42
36.11
-41.2
91.66
-82.71
10.19
9.59
6.22
87.13
-0.28
11.15
-21.56
66.76
2.48
-7.8
19.64
11.28
-49.9
-5.76
-31.03
22.38
0.14
-3.32
5.56
7.17
-8.4
-5.43
8.37
0.64
-172.94
-2.12
-6.11
-20.91
-89.59
-2.11
4.94
2
11.31
76.58
-59.72
-10.14
-18.03
104.82
60.93
-103.53
-6.22
-6.87
25.09
12.05
-14.07
112.69
24.11
-11.05
22.4
-10.14
0.75
52.74
93.92
54.85
-8.65
10.91
9.68
-2.11
-4.47
73.7
-3.32
148.28
31.95
2.47
9.87
-4.12
-24.78
-21.96
17.11
5.51
-45.75
-8.5
-3.96
-37.11
-8.23
-38.38
-14.1
79.2
-10.59
3.77
20.5
41.3
12.04
0.03
28.71
-37.73
-89.21
25.9
0.85
-7.37
23.25
-150.35
20.65
-13.56
-6.35
-15.09
-3.23
-0.67
-194.29
-9.53
35.09
-71.33
-74.33
66.22
31.45
0.52
11.59
-7.63
212.69
43.96
9.63
47.77
-64.22
-1.54
10.61
-2.5
-1.93
20.99
-58.42
6.5
-13.91
-23.47
17.88
21.72
40
-16.77
-58.71
60.77
45.81
-9.71
-20.73
16.77
29.11
-0.66
4.39
-169.73
-59.75
0.91
25.97
-7.9
-87.21
10.24
5.65
-9.29
41.36
-8.6
57.95
-28.96
-55.49
17.46
60.84
40.49
-41.53
-16.76
9.23
26.78
15.39
0.09
20.21
0.5
74.37
-101.78
-144.27
10.2
6.58
-11.89
4.48
-2.77
-24.4
77.42
89.73
63.42
-1.26
51.7
-4.4
-141.21
-46.95
-4.79
-68.93
-104.9
10.04
-11.49
-108.62
26.9
9.1
-15.59
91.98
-12.72
-14.32
-7.16
-5.46
-48.91
82.29
2.29
-3.32
12.99
-39.73
-134.73
47.45
-10.26
26.09
-5.09
0.06
-2.99
-57.73
-9.16
13.76
-63.29
-5.08
86.03
-56.92
67.69
86
59.21
8.08
-3.96
-15.15
-16.97
9.76
0.01
24.6
69.62
26.64
-42.93
-10.82
9.83
-24.45
46.96
10.79
-8.38
-22.78
-1.86
33.79
15.42
-63.39
2.27
2.64
-14.49
-25.23
-0.78
-72.95
20.29
4.31
-3.09
17.32
4.08
1.87
-23.06
4.66
2.48
22.9
6.55
47.36
9.19
12.22
69.65
5.89
0.22
-9.66
-17.17
-161.82
-69.96
44.44
-30.61
33.48
-7.07
-42.15
-5.28
-14.67
-11.51
-32.29
-8.63
43.99
0.48
-1.94
191.68
-3.65
49.86
26.27
-2.76
17.53
10.86
76.55
49.97
-6.38
57.8
5.69
-10.82
-7.51
31.28
84.69
-3.36
-6.48
-3.58
16.02
-74.04
-300.29
19.42
-0.72
-8.11
133.68
22.47
-35.77
0.47
-16.79
-40.71
41.22
-23.04
-8.84
-56.76
-6.19
64.2
-88.13
17.73
58.72
37.31
-16.64
74.44
-26.13
-42.18
75.52
-100.27
94.6
39.47
-70.1
25.34
-7.33
27.02
-60.87
18.28
8.15
-72.01
-6.01
58.92
48.35
2.16
7.39
-88.56
-45.92
-53.55
21.54
2.81
-13.3
-1.77
-74.44
-38.18
16.41
-0.25
-3.36
-30.24
-140.03
36.47
1.02
-37.46
-135.09
-10.88
-22.67
-10.84
-1.9
-8.35
346.75
-11.29
-14.82
24.48
-74.38
84.12
-22.32
-64.15
72.9
12.52
-9.97
-6.47
43.82
6.26
1.46
-29.71
-55.01
-6.78
-108.36
-98.23
2.04
-13.85
-4.58
3.03
1.17
-10.13
-53.89
-3.52
74.42
-7.81
-66.58
135.37
-23.76
10.48
-2.16
19.88
0.64
20.24
18.31
-38.19
-7.41
-11.51
-20.51
-7.25
31.47
2.24
-7.77
-8.35
-30.26
0.46
-3.08
-8.19
-8.25
-107.63
22.44
68.89
84.5
69.7
89.66
7.67
29.67
-8.17
30.61
8.58
40.11
-1.78
56.14
-2.33
-18.54
10.85
-1.42
9.1
-4.96
0.61
6.77
4.01
47.76
-21.55
-56.09
-9.78
-109.19
-12.75
10.1
27.13
5.17
48.75
-92.19
-39.17
-7.98
-26.48
-22.36
-26.8
-6.18
-17.4
24.12
-37.27
8.56
-6.41
22.08
5.57
-8.93
12.53
5.52
49.83
-120.9
123.22
139.4
84.09
-4.24
6.44
-12.66
70.2
43.75
5.4
-16.15
17.19
-53.63
49.48
6.99
-28.44
58.9
76.78
-115.08
12.79
-39.49
29.22
-2.98
7.99
-10.42
-0.6
-2.5
0.86
25.87
-7.13
9
47.39
2.68
12.27
-10.79
4.9
30.67
9.1
-9.52
-43.79
32.12
-5.54
65.05
-17.21
9.76
9.61
-22.23
-8.68
-7.2
-0.72
2.9
-0.46
-39.24
-16.79
48.71
-88.05
-11.94
-24.45
12.19
7.76
-3.77
-69.32
3.24
-103.5
-35.22
-17.72
-72.46
4.57
12.5
22.61
15.2
-2.19
-10.12
-10.74
32.1
2.22
51.28
40.73
-62.56
17.06
-6.42
38.01
4.02
-8.24
50.91
112.27
-2.97
-109.77
12.68
65.8
4.9
78
-45.19
-32.41
8.27
-6.2
-9.65
4.73
26.22
8.23
5.36
4.86
2.25
-15.38
-44.8
5.38
-18.97
6.98
-60.6
-1.46
48.42
8.53
71.67
78.7
24.64
-51.51
10.51
-6.31
-15.05
-3.6
5.41
-77.46
-13.54
-21.67
-26.28
22.87
106.98
50.16
12.05
-10.38
29
-8.03
15.41
-80.1
-4.76
42.19
-2.13
66.8
23.4
-0.42
6.2
5.91
5.23
-16.35
12.08
-17.76
0.23
4.8
7.33
-56.14
44.71
6.34
-148.78
-25.49
-4.02
7.81
-36.06
10.03
0.07
-15.04
13.8
18.49
-11.91
-26.75
-14.34
-7.68
-10.74
126.53
55.54
31.63
-64.14
-44.77
-101.06
-9.54
12.18
-6.44
-206.71
47.34
1.11
-0.13
76.59
-4.14
-10.71
-10.97
143.65
41.42
-29.95
-8.77
-91.25
-69.38
1.13
-14.58
-45.8
-132.49
-5.07
36.77
98.71
3.22
-11.23
0.77
-81.88
13.04
-13.34
-19.95
8.27
82.03
111.89
2.78
2.41
-65.85
-137.71
0.2
-28.56
31.93
77.1
-11.55
-5.07
-3.58
40.54
2.8
4.31
93.77
-10.81
-8.05
21.45
-6.63
127.95
0.48
-3.75
-122.38
37.17
19.11
2.61
-10.37
27.47
47.71
10.88
-5.62
-28.86
-66.52
-1.48
9.21
4.99
-41.48
-53.82
-2.76
-26.98
-25.07
73.8
42
20.51
11.34
1.32
-9.65
-10.29
21.07
11.54
-7.66
-7.19
-10.29
-11.23
-9.49
-14.14
-9.62
29.57
13.74
-10.85
-8.03
-122.42
-24.1
-8.43
103.37
-1.51
-62.82
-57.67
-69.79
31.3
12.59
-6.35
60.64
5.62
-162.74
-9.24
-4.73
-51.85
-40.39
-12.11
-15.7
-4.99
34.69
2.7
-0.24
7.69
69.64
50.89
9.6
14.94
27.55
-101.79
-9.12
-42.48
1.54
7.52
-4.3
0.08
3.9
-4.01
-57.29
-16.69
-5.04
-38.58
-3.59
-50.68
19.78
17.03
19.9
12.33
7.7
196.16
-5.52
13.66
48.92
42.99
70.14
-15.31
-89.68
-0.46
-21.94
11.61
96.93
-16.22
-9.6
23.05
-16.38
150.3
-0.38
-15.01
-99.97
-1.38
-3.89
58.41
-5.02
67.9
-32.34
8.61
42.45
80.91
-10.93
27.64
-7.32
36.68
-12.4
8.75
-41.93
-8.16
92.9
-10.05
-27.09
1.52
-59.65
3.47
1.81
-67.97
14.19
-44.96
-12.43
58.92
5.65
14.61
-7.57
13.07
-30.7
-38.77
-1.34
2.74
-10.45
16.65
-36.66
-3.98
-12.42
-1.15
-1.61
11.94
19.66
3.8
-18.42
-6.66
6.82
1.39
5.86
-1.88
-10.55
15.33
-1.32
-5.76
96.37
12.76
-90.31
25.81
-88.61
19.28
-15.8
-6.58
-28.94
1.37
77.42
5.24
13.17
-59.34
-8.93
10.03
4.39
21.42
2.74
-2.17
-9.86
-1.65
10.56
-9.59
-8.49
-20.06
2.42
-17.26
-83
37.38
70.54
-101.92
39.59
-49.28
4.72
-22.97
-2.37
103.16
10.47
5.82
6.05
-57.86
-3.37
-3.26
4.23
4.55
-7.23
82.59
-2.72
-9.92
-4.9
-1.63
-53.57
23.27
3.92
-0.54
-77.01
-66.46
-120.11
-15.31
5.89
-55.97
-15.85
-0.23
-78.93
8.49
55.94
48.02
-18.56
117.87
42.29
80.11
33.38
13.72
-5.41
6.99
-8.19
-141.22
30.29
-10.48
16.49
1.16
7.98
58.58
-38.58
3.83
-1.82
-358.99
1.11
36.06
-8.29
-11.24
-57.63
-67.67
-7.23
-5.27
61.73
-60.06
-7
70.61
-1.38
32.42
21.57
113.19
-32.14
-4.21
-96.08
65.22
13.93
72.19
28.99
110.12
56.69
-18.18
-2.38
-4.84
-4.52
47.11
-8.7
34.42
-1.58
3.86
8.97
7.01
13.13
2.81
11.56
5.2
6.5
-38.32
-6.5
-9.43
-107.66
67.27
107.31
-4.88
14
-0.58
-17.44
-12.86
9.41
-34.12
5.86
-36.44
94.26
-7.71
59.83
-130.05
0.66
-4.2
23.52
1.31
6.46
-41.75
-9.22
-4
-50.7
52.92
45.43
32.4
-31
-2.61
-6.63
44.87
268.28
-72.87
0.63
-9.13
1.73
-53.49
-39.16
-0.05
1.11
41.42
3.03
1.08
5.43
10.3
2.83
-49.89
-9.08
-5.95
4.28
-6.73
-15.04
58.45
3.28
242.63
-6.89
-130.81
-5.93
-3.68
48.73
27.65
12.26
-5.56
-51.27
76.37
1.69
86.53
-112.73
32.78
-12.01
7.89
-56.5
8.27
25.94
-13.45
141.24
4.84
-26.3
-258.51
-0.3
6.54
1.86
15.19
-42.7
38.76
13.74
-15.09
9.68
67.55
41.13
-110.72
35.69
22.99
29.68
39.53
65.79
128.62
5.32
-11.74
-8.78
3.22
80.53
-5.82
38.42
-10.22
-30.85
9.83
-45.17
131.51
4.96
-16.49
-13.37
37.47
130.56
21.52
-7.49
-64.56
58.62
-54.23
-8.17
-30.62
5.14
-100.43
-23.96
-6.3
83.67
-29.94
17.77
-30.77
-17.15
1.6
-39.16
-10.69
11.74
-14.74
-18.47
-107.12
62.27
71.55
2.63
-32.62
-15.43
-2.87
-4.18
13.43
51.23
-127.85
33.97
-115.81
-203.25
9.2
6.62
-2.76
-18.53
17.17
-68.28
-54.23
6.99
29.43
16.03
42.97
-16.88
-11.02
-8.52
-3.82
-19.76
-15.99
-176.99
5.8
-3.81
77.18
-12.39
116.83
6.36
-20.82
10.29
-87.82
-1.84
-9.55
51.33
-11.68
-15.58
4.84
-50.33
32.77
-57.46
-8.34
-56.58
2.63
2.03
18.71
-1.52
-3.32
2.08
-7.55
4.45
16.57
5.71
10.24
0.92
8.62
40.63
33.69
5.37
20.08
-18.83
17.99
47.53
-10.72
11.06
-90.49
10.98
2.74
-110.48
11.55
-9.46
-0.11
9.72
-12.98
55.8
-41.27
-98.51
34.83
15.9
-88.13
13.21
-14.74
-33.08
-5.2
-0.31
20.72
10.37
5.29
-16.74
65.57
30.62
17.06
15.09
-60.56
-5.55
20.84
24.59
9.79
3.78
26.02
86.52
11.61
-14.31
69.69
-159
0.93
10.31
20.16
-128.89
47.93
40.27
-1.39
5.25
-11.13
-21.18
-29.12
12.23
68.57
12.08
-31.68
77.31
-10.88
6.24
14.66
90.03
54.6
-112.05
-4.21
19.59
17.76
23.28
14.24
57.34
-15.23
12.93
8.84
28.63
13.6
21.41
28.03
9.41
-5.23
-16.33
-64.08
18.64
-93.99
-122.93
-4.71
-8.06
34.91
7.45
-9.7
15.76
-1.25
129.78
5.96
79.59
28.15
-24.39
13.7
4.75
-15.26
-6.63
-0.74
24.02
-0.17
-19.7
-25.43
37.83
-23.27
-2.61
13.61
-14.63
-61.44
-14.44
-7.14
-72.09
-34.82
10.5
11.9
5.48
-5.53
6.85
-114.63
5.67
-4.19
2.68
-28.48
8.37
1.91
13.36
-26.81
-96.46
-33.56
-14.5
107.19
59.17
-28.42
21.27
-15.41
2.84
-44.69
-50.15
34.41
-8.95
-9.73
-0.23
11.79
59.9
7.13
-24.38
-37.84
7.76
89.7
-10.32
4.66
5.72
-102.14
-39.72
8.35
-2.02
11.46
-5.67
6.74
-4.68
12.44
10.09
20.33
12.93
22.89
-41.71
18.9
20.43
-55.63
134.66
67.4
-78.7
-4
12.88
10.8
10.69
10.56
24.59
8.9
-5.43
-14.3
3.04
-4.65
3.16
-59.09
-18.5
-1.47
-24.8
51.59
26.08
44.48
-29.13
3.36
-7.62
-2.95
49.33
-5.71
-1.46
26.81
8.17
-12.26
18.82
61.57
60.83
39.61
-10.7
-22.09
118.03
-8.46
-100.73
22.01
12.72
-29.34
-10.99
13.98
-68.46
54.67
53.34
27.35
-31.35
6.31
41.88
-0.44
-13.73
67.45
32.05
-83.39
33.77
32.01
-37.63
2.72
45.07
1.58
58.59
17.52
9.73
91.29
-8.17
-14.66
-15.47
-49.04
29.65
2.64
-10.59
51.46
81.05
32.78
71.4
-94.31
39.28
3.32
-21.16
-7.94
-38.18
76.85
1.02
8.2
157.31
11.49
-3.79
-8.24
-114.85
-14.38
24.35
3.53
39.5
-7.44
62.53
-8.86
2.62
-161.9
8.34
3.65
12.56
-57.46
2.66
-5.22
-64.37
-24.08
-41.97
6.35
-66.66
41.76
-8.87
-84.51
-92.71
8.26
-21.82
15.08
-8.41
-53.3
-15.54
15.84
7.09
1.4
-25.61
9.35
37.24
-12.98
-43.58
-11.23
8.46
32.08
6.47
-37.43
-10.59
-72.48
54.82
-42.66
-1.83
-0.32
39.68
16.08
47.74
-51.77
10.99
-8
8.62
-176.54
-7.06
-27.88
18.6
-17.82
-5.03
10.11
12.67
-10.57
105.73
2.49
40.23
8.42
-11.54
-39.48
4.68
70.35
-128.65
0.89
9.39
-25.64
11.64
-0.93
-14.8
72.19
13.32
79.92
22.47
22.94
14.22
9.48
12.37
41.51
-6.22
-4.37
14.24
-14.71
30.45
6.51
-2.57
7.69
92.55
-18.84
2.27
-6.04
14.85
14.56
51.08
-182.56
67.31
-67.61
-9.18
6.55
-57.45
-111.78
27.12
0.92
-3.91
-56.36
32.75
-2.35
-36.76
18.95
-2.03
2.9
-8.63
-10.44
105.58
-9.28
7.35
65.2
-4.27
13.52
67.05
-75.3
9.39
39.37
3.6
-9.83
16.1
48.85
-13.74
5.69
28.16
18.18
39.32
-9.13
32.95
-7.3
-16.77
13.64
-14.73
-7.98
8.65
8.64
41.84
-7.55
11.73
-3.53
10.31
-9.27
-16.07
12.24
47.46
-21.98
7.07
9.1
170.76
48.31
-15.21
11.4
-18.1
-8.87
-23.1
-99.11
-2.49
-46.99
5.75
-90.16
-7.61
-74.94
-4.39
-12.4
-12.23
-43.1
-5.82
-188.85
52.88
-42.4
49.37
-10.18
-32.21
72.36
12.49
-65.3
12.93
4.63
-26.01
-19.77
-75.71
-162.7
-0.95
-8.1
-6.01
-10.72
6.6
52.29
3.87
-2.11
11.53
19.49
-83.44
-19.66
-10.07
-1.51
4.65
38.48
14.04
11.45
0.24
-6.49
-46.92
-3.53
14.56
-60.91
60.72
-1.24
1.3
-26.73
-7.36
13.95
6.64
1.38
12.72
67.15
8.54
-6.89
19.5
-8.42
7.96
48.57
-8.69
33
1.64
15.03
8.14
10.62
12.03
-23.72
2.73
28.3
9.19
8.4
1.87
0.22
6.81
99.75
24.95
-41.4
-175.58
-2.83
-1.25
-11.95
13.48
-21.83
-2.32
7.29
15.51
-2.46
-6.16
28.99
-0.47
44.99
7.85
3.92
-14.78
-8.07
23.91
-18.02
-50.09
7.4
17.31
4.93
-33.76
4.99
27.81
-12.26
-8.84
-5.28
-72.06
4.25
-37.14
0.24
4.23
-1.54
-33.83
4.33
-14.17
-9.29
-122.62
20.75
-12.68
10.24
46.24
6.65
53.74
57.57
0.03
-9.76
89.38
2.02
-12.04
69.49
-120.72
38.12
-154.16
-142.16
13.83
-18.9
85.47
-177.69
50.33
-40.3
-41.5
-10.9
12.26
42.35
11.82
-17.51
-4.02
31.1
51.21
2.27
16.51
14.13
-5.16
18.89
-73.07
-7.22
21.34
-57.91
-50.8
-64.26
41.39
-8.9
1.43
-0.98
64.31
-36.81
-13.86
42.06
-81.5
-17.51
-108.55
96
29.71
71.93
-31.31
34.63
26.64
12.52
-24.38
-1.53
1.29
57.41
1.89
-178.83
-27.92
-25.48
28.91
9.15
13.24
-29.88
19.98
11.83
44.32
13.54
-41.7
-22.18
-43.69
81.25
-121.72
-124.37
79.46
7.4
-9.28
8.75
-5.43
10.86
7.59
16.43
-0.63
-36.61
-6.53
47.6
-2.49
10.1
9.53
-10.28
14.68
30.22
11.08
4.13
-66.46
30.64
30.9
9.02
49.77
33.15
-24.39
-28.81
72.03
-120.73
-105.46
-7.57
-7.73
7.05
4.44
-12.86
-8.26
-56.62
-10.25
14.55
-8.46
4.14
-235.94
89.19
2.74
-14.23
-33.4
7.81
12.81
-10.99
-51.58
2.79
21.81
-32.88
74.01
7.89
6.4
5.8
-197.42
-5.73
-5.73
27.24
-12.04
15.96
38.78
10.42
-16.37
-21.1
-33.94
41.56
-14.63
-22.13
-132.23
9.38
-8.73
8.27
32.58
12.52
43.24
-4.12
148.57
-89.56
-110.29
67
-31.01
-17.72
40.27
4.45
2.82
-9.54
31.12
15.37
-7.08
39.95
-57.93
96.34
-38.95
4
4
11.54
-4.47
11.62
11.24
-10.91
-25.44
-2.51
-5.78
-0.06
-11.27
6.76
-11.86
-31.25
-10.6
6.61
-15.16
-57.36
74.54
-35.39
-51.88
-0.44
3.51
-3.2
-106.85
65.02
-36.79
-21.54
49.11
-12.8
40.58
4.37
-162.26
3.5
3.76
-15.9
2.67
-9.75
78.42
1.87
9.46
3.79
-16.46
-31.87
15.19
-6.08
46.26
58.7
27.73
9.25
-67.33
32.27
-4.01
26.12
13.91
-15.37
-1.64
2.78
49.02
23.3
6.88
-6.63
81.97
9.95
-94.43
9.98
-82.2
22.82
89.91
1.28
66.45
31.54
50.47
-7.06
-95.78
-71.88
5.66
39.09
2.95
122.64
9.1
16.02
12.57
18.39
-4.3
0
-147.42
9.48
0.05
-35.98
119.69
2.99
5.64
28.99
-45.04
13.18
0.23
10.35
-3.54
-6.5
10.53
-3.56
-12.06
-7.73
82.34
-138.56
11.81
41.78
-8.26
7.33
14.88
-58.56
8.89
-14.04
28.73
14.72
142.33
0.08
53.62
-21.95
101.78
-35.05
-0.02
14.99
-65.5
-19.98
-11.06
8.17
1.22
12.95
12.56
61.93
-30.37
12.66
10.8
-6.98
44.6
-24.84
32.69
60.84
-54.68
-3.62
40.74
181.19
-36.58
-10.35
12.61
9.73
10.58
-17.58
-11.03
-10.42
93.35
40.5
-91.08
70.38
21.59
-26.01
-22.2
-15.28
81.02
-2.57
15.13
75.12
-18.04
-41.04
-6.35
-10.06
451.72
-11.04
5.28
-33.08
-24.45
-7.09
32
-99.55
2.73
-4.41
-15.72
36.46
106.03
-2.04
-63.71
-1.96
8.73
24.51
6.11
23.25
37.32
-5.23
4.77
-192.31
-43.95
-80.3
6.16
-12.46
-54.69
4.41
-19.31
1.48
-1.61
-101
38.32
4.33
46.42
-7.83
-1.83
-107.29
15.42
-29.32
-6.16
-156.45
-71.62
8.14
13.94
-39.43
-19.23
0.37
-8.37
-6.16
-27.92
-17.98
-41.53
11.11
8.62
-0.1
75.96
-18
-5.66
9.74
-12.9
3.01
-28.18
67.16
54.15
94.28
10.99
14.81
19.28
10.86
-28.53
30.11
-6.56
-2.77
5.84
91.77
10.3
-5.77
9
-29.85
18.75
46.54
4.49
9.61
26.24
-12.2
-28.47
89.69
-37.03
-9.99
-23.35
-5.34
3.6
-7.69
-7.43
-3.85
-23.98
8.29
12.04
57.65
-224.18
7.37
27.44
3.26
-10.54
-7.62
-11.92
2.74
15.74
1.45
42.3
27.77
-6.24
4
118.21
-20.52
-54.84
10.35
34.99
10.37
-107.68
32.13
56.07
5.66
-22.51
11.05
-99.22
27.35
4.43
12.51
11.57
31.48
3.56
22.91
12.23
-0.5
-87.58
12.62
1.46
-9.32
12.08
16.53
-9.83
9.76
-20.3
-9.12
0.49
-2.86
-64.1
27.22
-2.49
-18.24
14.56
11.82
13.47
101.46
19.06
13.4
-55.24
-33.14
-23.8
59.54
9.05
64.05
-4.27
37.36
4.68
-50.68
-70.06
61.75
-7.6
-75.41
-4.8
62.25
22.99
-51.91
-4.87
116.89
-6.97
-9.74
6.82
-7.73
53.68
18.84
42.06
32.69
-1.56
-10.58
78.68
10.13
3.67
2.05
5.87
7.48
-1.89
-97.6
59.64
0.36
0.94
190.88
-263.41
-0.31
-110.17
32.94
15.68
17.9
-10.94
-40.44
3.94
45.88
-57.74
42.04
142.89
-75.31
-3.26
86.26
4.39
11.6
-13.35
-3.93
38.94
-6.99
-1.05
114.14
4.37
93.98
-10.54
-8.06
-10.18
30.43
-18.98
17.56
9.32
-109.14
20.53
8.86
-15.05
161.2
49.09
24.02
21.56
-20.3
28.41
105.01
12.21
66.06
-0.2
-5.5
-1.2
27.2
-37.23
37.54
31.4
-148.95
41.23
82.47
53.35
8.4
-49.93
-154.58
-8.6
-16.19
31.14
-0.26
-0.72
15.61
57.06
12.38
23.38
-44.78
83.23
21.97
-20.65
-17.56
26.8
8.8
90.44
5.59
-3.88
11.87
21.37
-2.84
-8.43
-0.62
4.48
-12.34
16.01
2.01
41.01
19.54
-2.57
4.59
0.8
1.92
-16.84
-78.29
6.14
-36.82
28.05
2.85
72.92
-5.53
54.39
-40.61
64.4
-8.98
22.97
-6.26
7.78
-11.56
3.23
7.9
-9.37
-10.74
8.92
-27.11
-48.3
-70.68
-1.11
-24.87
-65.8
118.66
-53.22
63.41
36.87
-4.04
24.23
129.23
-15.7
-2.11
-43.19
2.82
-9.93
-8.14
-6.39
-9.48
46.06
32.2
1.55
-7.96
-49
3.91
-2.02
-13.63
-11
13.28
67.05
40.5
7.77
5.19
-87.14
-65.59
1.39
38.87
-9.56
-42.72
19.42
16.86
-46.11
13.48
-4.27
-11.8
37.53
27.39
-9.95
14.56
4.08
-116.09
86
16.98
-105.26
-17.31
56.05
-52.45
-5.97
3.94
4.29
-11.29
1.9
50.84
2.82
-3.41
28.38
-55.96
16.85
7.78
12.29
1.65
-13.03
49.17
2.23
0.14
5.25
1.24
-107.12
-60.69
0.86
-46.07
-7.1
62.98
-8.37
-48.91
-21.54
45.59
26.52
-11.13
44.16
-3.17
54.48
53.28
6.09
17.49
-5.43
-14.76
10.14
59.77
-51.58
-1.42
7.75
11.17
130.66
2.99
8.63
19.48
-0.7
47.82
-61.07
-35.39
-124.69
5.76
-9.54
-22.09
-24.68
-0.68
-3.13
17.03
-11.49
-20.63
10.86
81.53
57.23
127.82
-5.93
121.62
-6.89
41.74
-6.39
-94.42
62.31
-68.91
-48.42
-4.2
41.1
1.98
-52.28
-52.94
14.19
-109.71
81.91
-6.84
-15.81
20.15
-37.01
7.17
0.59
-43.12
63.29
0.91
21.98
-61.52
7.58
1.03
8.37
-45.14
47.68
-25.58
-0.06
-82.66
-17.46
5.98
10.74
60.1
-30.52
10.86
-5.17
0.14
87.28
-7.68
15
40.53
31.53
-35.53
-18.13
18.42
3
-73.31
-9.94
-10.75
17.39
73.46
149.69
-8.85
22.58
19.41
10.65
9.32
7.78
-11.88
22.2
-50.99
42.76
-29.81
-36.13
58.79
22.68
9.66
-5.1
2.4
-10.9
-14.22
-19.81
-52.56
13.5
48.84
14.64
12.09
6.79
21.55
-40.75
-3.84
-2.69
-69.86
-11.78
-1.8
45.22
-12.36
-4.01
-14.83
-100.05
-13.07
-105.12
-63.91
-11.7
17.24
15.99
-3.03
-5.28
6.58
-12.19
-3.67
-136.3
4.46
-103.13
15.1
73.47
39.6
-11.02
-2.55
36.93
20.29
37.72
-15.27
-7.15
12.78
81.54
-38.82
8.34
7.27
-82.36
-95.41
38.64
-5.7
6.97
78.5
24.84
30.79
4.75
82.22
39.28
31.05
75.63
-9.26
0.54
206.33
10.34
-9.14
1.63
10.45
-13.37
-0.31
5.18
14.62
28.83
-3.32
96.18
77.15
96.83
-5.55
76.28
-23.75
-48.69
36.28
-63.18
-9.18
-3.7
-5.87
-147.91
167.25
43.97
-10.15
0.96
41.01
-7.56
21.22
77.4
140.72
-6.75
-64.62
-6.19
-76.08
33.04
6
11.64
25.78
-9.63
16.05
13.63
-22.4
13.22
-2.24
-6.98
7.86
19.47
-7.12
-114.54
3.88
-4.79
43.1
-63.63
-13.46
114.95
56.58
9.02
3.03
39.69
59.64
11.93
-23.88
-1.45
41.35
-7.12
-44.56
10.01
81.87
-6.91
17.16
36.7
24.29
7.27
52.33
3.96
44.19
-68.41
93.47
-13.23
-24.22
-67.46
21.35
6.56
24.43
-9.47
3.92
11.62
-21.82
-13.86
37.92
39.4
-4.35
65.31
-25.19
30.99
-9.08
-23.66
78.11
-45.24
13.52
-86.52
24.74
-27
6.71
-15.91
-38.16
54.84
17.44
10.27
-25.07
0.72
-12.14
-18.91
125.89
11.78
9.61
60.56
-4.13
6.78
-0.93
17.22
-14.58
23.65
-114.17
14.96
-43
-2.37
31.73
-1.26
81.97
52.04
10.53
-7.34
22.51
80.2
1.66
-1.17
76.88
-5.53
-5.33
-45.03
69.98
-8.04
-1.55
19.11
1.97
46.7
8.22
-4.52
-15.9
-8.8
24.71
-17.87
-0.04
-120.33
11.7
13.89
-2.12
-26.63
68.49
10.76
7.35
3.4
-2.18
7.26
8.5
33.4
-10.32
-21.73
-2.54
-2.7
-9.66
-9.81
-44.19
-4.34
5.75
-15.85
0.24
97.26
-21.29
-9.42
-35.32
-8.85
-18.5
22.61
-169.12
6.36
-112.49
-31.13
34.83
27.55
-11.17
8.83
-7.12
70.69
-13.3
-7.49
-46.37
0.18
-5.76
-4.76
-8.48
-55.52
6.52
0.64
76.54
31.39
-8.63
-5.04
-30.56
-12.49
-14.9
6.68
9.82
17.35
95.53
-26.09
6.6
28.96
45.95
34.59
-5.03
20.96
9.21
-21.57
-16
60.44
0.48
121.04
-25.81
-10.39
-10.68
14.48
-12.45
95.71
-22.57
-2.61
-7.41
-53.17
3.41
40.37
-23.96
-2.74
7.89
-55.91
-9.34
-59.51
-31.23
-3.22
9.94
-2.33
9.42
22.43
6.13
-0.56
27.62
-8.14
10.52
-9.33
40.28
16.92
33.13
-62.91
6.4
10.74
-40.69
6.85
79.79
26.63
34.48
-141.71
-42.1
1.26
-16.28
-12.31
9.1
-69.43
-3.84
35.6
-6.76
-0.69
50.25
10.7
2.31
-13.19
16.28
-2.06
-16.22
12.92
-6.62
-0.29
1.11
3.22
-27.92
-6.2
-68.31
-7.61
55.98
-15.62
-2.24
-10.11
8.8
-2.24
-84.31
45.81
-18.79
-2.31
21.87
-4.54
-15.6
7.82
64.41
1.57
5.16
-3.83
1.51
4.35
-18.95
-40.66
44.65
-1.43
-90.69
69.93
-81.5
12.55
-1.38
9.15
-42.46
-12.11
12.93
46.1
7.17
-3.99
-10.24
47.98
-10.93
-26.2
-35.8
-10.9
27.08
8.12
-7.34
-22.82
5.05
-127.18
14.18
-29.82
41.68
-114.95
-10.02
-28.74
139.25
-3.27
80.46
23.49
-100.3
-9.36
8.94
-42.78
13.66
-53.6
9.46
65.49
-10.62
67.75
-29.54
11.45
28.32
35.86
11.66
-9.32
-65.29
14.44
-27.74
-2.09
-15.48
6.29
-45.44
-36.49
8.07
-154.62
-3.7
-17.94
-20.96
-8.35
1.84
0.37
-9.6
-14
10.74
3.72
5.14
-1.07
-8.46
43
10.61
-3.15
-77.4
5.44
8.67
3.86
-33.43
2.56
-10.65
-8.8
-114.49
1.43
-26.35
41.08
-15.53
-18.67
-0.78
30.56
-1.11
13.01
26.48
109.45
-19.65
-6.52
19.94
19.21
41.8
27.96
-135.15
30.35
-7.1
-57.94
-20.22
8.41
-31.97
2.97
13.26
-0.82
-12.29
-38.31
173.81
31.13
171.8
29.28
-12.14
5.43
-79.07
-6.14
-25
-19.11
40.84
12.36
2.95
73.21
21.26
64.6
16
1.91
33.34
123.69
51.24
-9.1
-171.96
12.25
-6.49
48.62
8.05
-11.43
19.77
69.2
-74.87
-7.65
-10.97
9.29
-24.39
183.45
27.63
192.57
7
139.92
46.51
130.74
12.08
2.93
-69.97
10.96
-0.46
11.64
-10.68
-222.95
49.7
10.17
-21.72
-14.93
3.84
-79.36
-40.92
-21.85
51.22
-48.21
6.08
14.44
-176.69
10.81
-50.05
-5.85
-15.05
-7.91
10.1
8.89
-15.63
10.77
-40.33
6.45
6.05
7.37
4.1
104.13
-11.52
41.37
-3.57
-28.28
44.92
53.72
2.1
30.89
-10.94
12.48
-50.12
-1.64
2.27
-26.74
-102.47
-1.76
7.65
70.44
-83.33
9.21
43.52
19.51
21.29
-57.34
-10.55
0.58
-15.43
0.01
6.81
-17.08
12.37
5.21
-12.28
4.71
-36.78
9.09
-24.79
-21.93
2.25
5.94
11.01
-34.97
22.9
13.41
34.21
108.89
5.67
-8.99
-0.93
4.64
-6.1
-14.06
18.56
6.14
5.61
124.99
79.72
-18.69
-5.02
19.95
19.45
-4.35
27.95
7.8
-65.02
-18.55
-7.75
-110.88
-93.18
43.66
23.89
32.47
6.25
-29.25
-40.74
26.56
-49.87
-43.35
10.62
-89.64
-110.51
-5.06
10.89
-2.65
88.93
71.51
13.43
30.14
26
-21.59
28.4
19.12
14.18
-52.73
-90.43
5.5
45
-50.42
-3.49
7.91
6.12
24.09
6.55
-6.12
-15.96
-39.59
0.92
-4.35
-13.75
-3.44
-0.57
44.13
6.7
-5.48
-54.36
-11.42
13.48
48.15
-8.44
-1.27
-0.34
9.04
-36.39
-12.16
3.09
1.89
26.17
-10.56
-28.89
-6.36
89.36
-5.39
9
29.33
8.41
-23.03
-43.02
-0.38
-26.46
12.15
62.96
126.18
-18.09
100.53
86.85
-1
21.92
-39.26
-65.87
-38.72
-45.78
7.67
-6.28
-9.2
194.39
-2.38
91.92
-7.71
-4.82
-39.34
6.68
-24.2
10.17
75.12
2.02
56.18
7.01
12.3
-12.12
9.33
31.22
-71.81
7.78
29.63
-68.43
5.07
-94.45
1.39
-11.59
5.77
-9.55
-3.59
20.8
10.89
52.53
-218.21
-1.58
49.53
-174.05
49
8.68
-30.36
252.28
2.85
110.06
-10.58
-4.67
49.24
-1.12
-20.33
-7.8
12.72
5.19
34.04
-11.06
68.03
66.92
-18.31
-6.79
-38.7
-14.99
126.51
-25.65
-54.58
20.85
1.91
-84.26
-71.22
-26.44
-18.79
72.36
9.59
24.17
-26.7
-19.78
-102.66
-15.91
-21.13
24.39
28.65
1.77
84.17
-10.72
0.92
14.12
78.66
71.4
-21.54
-11.36
130.01
-12.92
-7.37
18.05
37.68
-77.48
-16.67
-64.16
-8.06
79.2
13.29
16.8
-9.29
54.67
110.12
8.75
5.08
-5.5
8.61
74.82
11.39
-4.04
-0.84
-11.2
-4.82
-12.32
1.19
-51.39
-7.65
60.7
164.87
-12.14
-8.14
39.95
33.86
12.43
-9.72
-42.24
31.57
-43.1
0.66
29.4
51.59
0.19
-6.88
-3.91
1.42
9.79
-31.43
-90.71
16.84
-5.59
2.17
6.23
-1.12
9.1
22.58
0.63
5.84
-45.3
-39.69
-39.11
80.2
-4.18
-20.26
29.22
-12.45
-15.82
-126.1
-9.76
10.75
97.77
-45.68
7.78
2.83
1.85
-6.95
-21.04
6.36
8.82
-20.75
5.85
37.92
-9.99
-22.38
30.83
5.33
-336.53
-16.04
3.59
-7.38
65.32
41.78
-8.72
44.97
19.74
-41
-57.79
-48.63
0.25
22.66
10.81
-27.87
6.64
2.13
-10.68
76.63
-14.45
33.58
-3.43
-0.26
-37.03
-6.35
18.29
-33.17
-12.71
48.02
-30.03
-4.38
-60.81
-1.42
-5.46
39.6
-29.41
-10.77
-82.85
9.11
-4.95
-52.82
19.37
91.34
46.19
-139.15
-11.93
-0.26
-77.36
35.57
72.24
-0.41
-81.08
13.96
9.11
-49.84
47.4
8.84
-2.79
8.62
71.69
12.88
-9.35
63.64
27.67
-36.9
41.24
23.95
11.74
35.93
7.14
-6.81
33.2
5.66
38.51
-1.82
43.42
153.34
146.81
31.78
65.24
90.25
11.96
21.31
-32.27
-72.29
-2.44
-23.86
193.24
-42.13
20.69
-7.46
23.76
-6.74
88.84
7.43
13.03
37.74
-2.32
-9.2
88.11
7.75
13.34
-3.78
59.28
-31.54
-5.62
11.31
-45.85
16.51
49.32
-78.89
-101.92
-11.85
13.9
9.31
0.13
15.22
-14.61
45.23
16.42
-2.85
2.57
-13.6
-54.3
-2.67
-9.09
-34.45
2.98
-4.3
129.72
-232.21
0.22
-10.03
9.65
3.91
-20.15
5.55
15.77
92.35
-40.26
13.25
65.27
-112.39
49.39
53.14
69.45
-16.16
-1.94
41.64
-42.79
-5.42
-10.19
-3.08
72.97
-70.53
-62.83
10.32
7.86
52.68
15.5
2.72
167.39
7.68
35.14
-98.23
70.63
27.37
-137.54
289.77
-18.53
11.37
-110.7
-47.51
0.97
-3.83
12.43
-26.66
-7.28
-5.74
-90.67
4.71
-7.36
-22.92
72.01
11.73
-8.38
-6.62
66.7
-29.27
79.11
39.59
-36.46
-8.63
-15.46
8.43
-21.39
-31.61
14.61
-10.03
-8.22
-16.32
-16.45
-7.07
57.78
-55.59
2.72
78.98
21.06
39
-3.51
-83.64
-59.39
1.51
5.82
-43.25
-0.98
-9.12
6.68
-73.26
98.35
-10.17
-58.65
-12.76
-10.52
60.27
37.03
13.83
3.36
-172.48
8.2
89.32
11.73
9.86
21.01
82.58
-16.72
-97.78
-47.21
-13.33
1.88
-0.66
18.19
10.3
5.78
-10.48
-25.32
12.48
-82.62
-96.06
-66.06
0.29
-81.25
-60.6
-5.3
-2.73
-14.02
-1.91
3.95
0.32
-19
-0.7
4.46
29.03
8.7
-2.97
28.65
1.97
-39.99
-6.21
-13.79
-7.79
91.44
-22.73
-39.57
49.5
11.98
16.61
42.24
7.29
-21.43
3.06
-12.32
12.72
-118.87
-93.42
-13.51
29.44
-137.14
-10.67
48.83
-1.31
65.8
16.73
-43.03
0.26
-10.01
-3.6
85.97
103.06
11.05
-124.27
-12.15
-5.22
-5.94
39.26
4.34
-8.08
235.54
62.63
-2.76
-0.92
2.5
-33.51
-159.91
58.76
-4.25
-8.38
-20.67
10.86
-11.48
68.2
-9.95
10.8
0.76
-78.89
20.12
5.98
-46.66
-7.75
9.14
-4.05
-12.64
-12.74
-3.19
1.76
18.84
-0.2
-68.03
-31.82
-0.41
14.61
-28.1
142.24
43.2
109.96
56.07
5.51
101.96
-44.86
2.32
5.38
-144.28
-2.76
-6.61
52.27
-6.36
20.99
-0.27
62.34
-3.8
98.69
55.25
-1.58
37.58
-9.16
7.44
6.98
17.77
-8.92
-6.75
5.65
4.74
75.24
7.57
-40.43
-7.45
41.94
-49.46
-0.57
-72.6
34.27
15.72
-26.95
9.27
-3.78
-18.45
9.47
-10.44
149.85
7.19
-179.96
62.23
78.89
5.75
60.74
-6.18
-91.41
9.03
-28.52
14.19
13.89
-4.77
2.07
-5.59
-64.9
22.11
-0.42
128.31
-1.76
-14.84
3.79
8.81
-22.31
0.13
11.21
10.12
51.64
10.66
3.12
5.09
56.33
-2.53
20.34
30.93
43.27
62.19
28.3
38.14
12
45.32
-9.27
88.75
13.09
79.89
-16.36
41.44
-2.26
-99.79
31
-149.75
41.91
25.01
-25.11
-29.95
-41.61
8.71
21.56
-28.1
48.45
2.84
-11.38
-24.06
93.36
0.14
-98.3
-90.29
-12.29
5.62
-4.33
-178.3
-24.48
16.02
6.42
12.02
119.92
59.6
8.76
44.18
3.15
163.65
-30.53
-16.46
39.68
-20.14
7.04
-11.61
10.3
-15.21
10.78
121.6
1.86
79.51
-130.41
5.64
9.38
9.36
18.45
-17.37
-70.28
109.22
-24.55
-139.51
43.63
-188.03
-8.81
30.48
153.73
13.52
-106.7
17.4
27.75
7.41
-4.24
-240.67
-1.81
-22.51
15.61
-153.48
6.41
57.65
56.26
8.31
-2.19
-6.86
-46.3
63.02
-9.74
12
-17.02
-9.57
32.29
-43.73
-8.23
-5.28
-1.85
-21.5
-9.66
20.39
1.29
-7.05
67.31
43.16
-21.08
88.15
5.46
61.7
26.06
5.18
-1.67
-32.1
17.1
-46.7
-33.97
-62.32
6.45
7.97
-117.36
-50.57
10.05
21.1
57.53
-4.57
71.39
91.5
20.65
11.64
0.24
-65.22
-59.37
-172.5
2.84
-10.19
-26.43
-10.47
-1.8
6.51
12.54
-60.74
-159.64
7.44
-7.79
-27.42
105.27
17.97
-9.35
-2.68
-26.12
32.66
-36.58
-36.57
14.62
51.66
17.23
4.39
113.38
-13.76
10.52
-115.87
109.48
-8.93
-15.53
11.01
53.58
12.83
-101.33
34.41
-12.54
-8.35
-12.7
33.3
10.32
77.46
-5.03
-11.37
91.75
-33.38
-17.25
-80.2
-15.47
56.61
-7.81
-20.76
-81.68
4.74
-3.47
19.58
-20.26
56.97
1.79
56.28
-66.97
-49.43
-0.68
-3.98
17.44
-72.21
-0.66
-76.09
-7.85
-4
-83.45
-10.99
-148.33
31.87
7.57
-22.07
23.74
-8.44
-71.82
12.79
-5.08
6.38
-53.71
66.86
-218.72
81.69
-3.8
4.8
-10.13
-11.19
-2.92
-4.1
5.57
41.01
5.67
-9.49
13.43
4.21
12.12
65.08
-43.56
-62.72
8.53
-0.83
-10.05
19.15
-2.08
42.99
-50.8
-20.42
-7.65
9.31
-50.95
-4.24
-3.5
-142.07
77.85
8.85
11.02
12.87
-6.1
-14.46
-45.91
11.11
108.02
8.68
1.54
-76.56
-73.29
6.25
2.78
7
-15.12
3.18
5.23
1.11
-41.53
30.68
15.41
88.83
15.02
54.91
50.49
-41.58
-7.24
-10.13
2.4
-43.71
-40.69
-3.11
79.73
2.29
14.1
-5.14
18.7
-8.02
34.84
-2.04
83.7
-16.49
-37.91
-5.4
11.39
-16.76
-6.86
-49.11
37.21
-4.01
-52.01
67.79
6.95
-10.27
-84.57
19.09
-26.6
-14.68
-22.53
71.05
-105.93
13.48
-16.28
-22
-78.72
46.61
6.12
-16.46
42.85
-27.45
17.09
-11.55
-14.52
-5.96
-6.81
21.94
-11.81
0.41
17.26
-16.12
-60.16
-29.52
-3.67
-25.99
-9.78
58.01
0.51
13.15
-20.63
-7.81
4.62
-6.88
85.61
15.27
-37.05
-8.54
31.92
11.56
127.4
-5.77
9.57
120.21
30.84
-2.85
90.62
-31.98
-71.3
34.17
52.45
3.54
-9.62
-20.6
-21.35
-31.03
32.53
22.99
59.84
-3.18
-13.39
-56.36
-39.76
-56.41
88.47
-22.87
12.04
49.97
-9.18
-8.95
-5.29
-160.49
-9.92
2.85
103.44
-3.71
-4.67
-5.22
-52
1.51
0.73
-11.82
-0.39
-3.56
-1.34
124.52
-2.86
-2.9
-28.98
-44.33
-9.29
-95.97
5.78
161.47
-60.3
-45.63
95.6
-10.01
-7.98
1.46
8.38
-9.94
-1.47
90.69
-16.33
58.03
68.99
-34.91
-1.84
-12.53
11.49
-9.28
30.21
5.68
-139.97
-11.99
-9.26
8.08
131.98
-24.48
-47.89
8.67
-26.67
10.55
-2.8
21.71
-9.81
6.8
2
18.03
135.15
-8.72
12.06
30.44
-86.56
5.79
9.1
-9.59
11.12
-127.17
-8.57
5.68
44.28
3.88
42.79
88.35
3.01
-32.66
-41.71
-13.32
33.41
-8.64
-3.46
77.88
-173.45
16.99
10.11
0.23
-30.01
9.13
1.86
-68.36
-15.17
-5.12
4.25
7.57
-0.46
8.12
24.98
31.67
-20.5
-31.09
-133.2
-89.84
37.86
-54.86
57.71
134.2
40.72
-9.32
10.73
123.81
11.08
26.39
-3.41
-35.88
-3.98
-36.44
17.63
97.31
87.53
38.12
31.89
3.17
9.39
2.6
10.96
57.2
70.19
29.36
28.22
21.36
-1.73
11.68
-12.43
102.06
-12.32
-8.17
8.32
-64.8
6.29
-3.27
-20.82
-33.74
-5.81
4.53
-3.84
126.08
-5.68
204.13
24.26
32.79
-7.05
24.74
40.95
10.37
-165.01
-1.76
-26.77
-40.61
14.44
-9.3
-28.26
34.93
-6.87
-12.43
-36.96
-18.64
-16.64
14.14
-87.53
-4.58
-9.09
145.71
-4.56
10.3
3.65
1.07
-51.67
-58.25
2.1
-191.53
42.79
7.67
-0.71
42.56
-40.08
-1.16
-14.29
-187.04
-100.3
-0.26
25.22
36.92
42.34
26.84
-7.27
23.27
20.36
16.86
18.66
25.37
7.92
-4.75
-8.11
14.09
-30.99
-72.79
-79.21
-52.85
-12.32
-9.94
0.77
-4.83
3.34
-9.68
76.6
-3.73
-5.7
116.24
0.3
9.43
0.08
11.43
1.37
100.51
1.16
-5.81
94.39
-37.01
29.4
3.13
25.28
4.72
-2.53
14.92
7.11
14.4
59.96
-10.16
-49.4
80.71
-12.18
1.63
41.75
2.55
-46.9
-12.92
-1.15
-115.32
-33.7
49.54
0.24
4.65
80.52
13.39
-3.87
-18
-83.89
-2.92
71.45
-5.01
-4.2
-19.57
-21.66
-7.84
-155.81
95.83
1.82
11.02
3.75
6.51
-76.16
0.31
-11.01
1.47
29.52
8.72
-17.58
-13.66
11.06
-17.23
9.96
-19.59
18.32
-60.23
-21.68
-17.36
-4.76
7.19
-34.46
-25.52
-88.65
9.28
41.96
52.72
-51.72
1.41
-12.08
-5.02
-9.2
-0.63
-8.35
24.93
26.65
92.8
-92.49
-0.1
148.02
-10.8
4.37
-5.4
11.41
-23.81
-1.79
-8.13
17.12
-11.4
7.29
-10.62
-2.54
56.03
11.47
-88.39
26.38
-75.09
-16.35
-2.49
8.56
76.87
-7.95
-61.23
-9.18
-23.1
13.84
-18.51
-93.05
-8.91
-13.72
-28.82
36.87
-0.06
-15.09
-13.46
5.17
35.04
23.48
-3.74
19.49
-28.86
-116.13
-9.82
17.51
5.24
45.88
85.3
-2.68
-15.51
65.91
-3.82
-124.57
-10.46
53.52
-102.86
-0.86
13.73
9.46
-27.81
-1.98
14.81
35.2
-33.55
60.95
-67.75
-107.3
-5.84
-12.18
46.96
5.43
-15.11
-268.66
-49.98
-13.12
-27.24
11.37
-81.92
28.99
95.06
-21.09
50.74
-69.74
23.83
-7.6
-39.83
-6.05
-14.51
-257.5
-95
54.63
-23.35
11.61
-4.58
-3.65
-2.4
-8.1
17.43
-5.78
-16.62
-7.56
-1.27
109.13
-12.43
71.27
-24.13
17.81
-20.68
-38.24
-13.08
118.35
18.78
3.98
-46.26
25.61
61.85
2.8
2.84
15.48
-31.57
1
-27.82
176.87
-85.64
-7.21
102.35
-14.02
-4
-0.27
-5.64
-27.41
83.68
11.51
14.47
-9.33
48.15
39.97
7.46
17.56
8.4
-10.78
3.89
8.94
114.81
-98.07
-19.98
135.14
-11.45
-17.29
6.03
-31.59
77.45
40.85
-12.79
29.34
-6.03
76.97
1.67
-28.37
-12.83
2.23
8.59
-4
16.07
-44.46
-0.62
-51.79
-5.44
5.11
10.06
27.51
-48.83
54.43
9.03
-0.7
20.55
3.2
74.5
-8.81
-3.76
-153.11
8.75
-3.64
39.54
10.7
-2.97
10.3
8.27
-7.69
6.23
-35.95
25.77
38.71
10.55
-32.38
3.84
44.97
-1.96
8.05
-8.01
31.72
-19.82
-264.15
-6.96
9.44
97.25
-64.73
-1.96
-336.96
-6.85
85.33
38.27
-3.01
8.15
13.35
162.89
-9.92
43.58
6.06
-4.51
-39.67
-7.14
38.31
5.67
-44.02
38.19
9.11
2.25
-27.7
13.81
71.01
-14.52
4.88
-7.73
4.04
-30.04
9.92
7.74
-5
-11.07
-2.51
0.66
119.62
-3.76
66.15
10.38
34.3
25.19
-9.33
15.38
16.15
5.47
2.66
-2.73
-8.97
61.18
5.67
3.12
13.23
9.62
25.87
4.83
-81.61
-12.87
3.66
-2.58
-97.69
63.34
-14.67
14.8
-2.65
-6.9
-42.22
-125.63
8.03
64.27
-11.77
-13
-31.34
-67.18
19.33
42.76
6.61
-3.64
-5.44
9.98
11.47
38.52
-10.03
4.08
-15.84
-20.32
3.06
15.75
10.9
2.38
-3.11
-11.83
-8.2
-1.45
-42.16
24.01
-7.79
12.57
-53.79
36.94
-163.19
8.7
3.19
-26.19
2.74
-11.63
-127.62
19.96
33
11.79
7.34
8.82
-90.5
-3.23
58.09
-3.12
-7.62
69.86
-37.47
59.72
1.69
45.93
-6.5
11.66
58.71
-51.62
11.69
-36.33
0.62
-21.61
71.28
-77.6
18.8
14.93
-2.96
-3.21
11.09
5.04
28.28
-39.63
4.8
6.23
-1.19
-18.3
-26
-9.23
61.28
-15.93
93.2
-37.34
1.6
9.52
-188.45
-5.08
-14.44
13.74
-0.29
-211.13
-30.1
10.49
8.11
-35.71
12.05
11.71
-51.31
120.29
42.88
6.31
85.03
6.3
-57.8
2.78
-0.3
54.72
49.02
16.07
9.84
-18.45
87.76
31.18
-7.45
6.88
-81.08
6.58
-41.28
33.36
2.07
-107.33
2.32
4.05
15.34
-17.06
-113.82
-11.49
-16.58
-55.63
4.35
-44.87
56.28
30.91
-70.08
-7.31
7.96
33.06
-55.6
-40.97
25.49
-5.19
-51.8
5.02
-13.88
95.19
40.24
32.3
-6.34
-1.36
37.93
-88.53
1.47
-5.93
28.12
217.27
-200.22
62.72
12.43
7.76
-12
5.78
0.77
-5.1
-32.8
4.7
2.43
1.64
19.55
55.68
12.92
-14.88
-56.33
-8.82
1.49
79.23
-21.56
31.35
6.82
-3.88
33.26
-5.67
-21.95
37.61
-195.09
-16.93
-40.7
27.41
14.93
-98.04
-35.11
17.24
29.18
23.77
-11.83
-85.54
-71.33
-78.7
37.99
32.52
23.15
-7.07
0.31
-0.88
59.51
-45.6
96.15
53.35
-27.96
-15.37
7.47
-2.52
-69.31
-10.73
108.59
10.56
13.62
61.66
-4.67
-5.63
-4.63
96.19
22.87
103.51
42.85
84.53
-50.37
3.52
-9.24
-4.62
6.14
-90.6
-3.16
-5.73
-8.04
48.48
-20.82
27.37
-10.85
-45.15
-8.69
-92.64
2.45
22.76
-1.45
74.23
7.91
6.75
-10.18
85.28
4.27
0.27
3.47
77.04
9.75
-4.15
8.59
-58.8
14.47
12.73
-4.37
15.1
9.96
39.68
16.38
-12.08
-111.25
14.51
162.38
-26.8
7.28
-2.72
-6.17
-36.17
-54.1
11.15
6.56
-5.81
26.66
0.03
10.05
-14.51
52.26
5.77
3.8
-106.58
35.13
-4.18
-78.71
13.66
-0.96
-16.43
5.68
0.02
-67.92
8.66
98.33
16.91
-7.19
106.61
23.18
-31.3
-28.13
26.5
62.06
138.96
18.97
69.72
1.85
15.94
-2.99
-204.67
-10.22
83.83
0
-11.3
-1.48
-33.57
30.02
-30.96
-24.55
-21.08
-16.15
93.77
17.72
23.88
98.9
9.09
29.5
-11.02
-41.35
-72.52
40.37
10.22
-14.27
-3.84
11.31
-27.5
24.72
-67.28
-65.95
44.75
6.89
-3.38
124.47
10.01
-52.24
-7.44
30.39
67.88
41.42
49.23
10.6
-1.91
28.37
7.27
-18.87
-1.9
-51.55
-13.06
-7.89
-35.65
-37.2
11.67
-9.55
8.94
-11.04
-76.23
5.95
-10.85
89.14
7.91
36.27
-5.3
-11.99
11.34
87.42
-9.21
-10.93
-18.95
-47.09
20.25
-12.3
45.58
-11.84
-0.6
10.71
-12.83
-138.16
-21.98
10.71
24.8
2.14
45.58
59.98
28.71
-41.25
-9.97
8.05
-7.09
105.76
56.24
-41.64
-9.69
-2.54
56.26
44.5
13.03
27.58
-5.09
11.39
9.74
3.32
-21.25
1.75
-119.9
-90.2
-22.79
69.1
8.76
-67.1
87.57
44.33
52.46
5
42.64
0.86
-9.4
10.79
-33.85
12.86
-2.4
43.51
-0.88
-278.05
24.98
-10.53
19.11
2.31
-136.55
-8.22
12.67
-65.71
-163.91
-45.66
4.29
-35.41
-56.82
-0.04
-1.66
-10.43
37.67
15.93
9.31
-105.76
-81.43
3.4
60.79
-58.53
17.85
13.84
-24.54
61.41
7.42
-69.29
55.99
5.64
-109.16
3.21
-15.39
7.76
64.31
-11.92
-40
5.48
102.25
-27.35
3.08
-7.45
-7.37
-5.59
-6.66
33
19.01
-5.85
-74.1
46.88
5.06
-3.89
-45.9
-26.32
26.14
7.49
-77.63
-46.66
-23.95
78.33
34.84
11.59
51.41
52.02
19.92
-12.25
-25.73
10.91
-6.96
-62.68
-4.16
8.32
-73.33
-4.66
63.73
66.23
-3.02
-2.73
28.93
-9.79
33.54
52.21
110.15
17.84
20.39
-7.87
-2.54
15.27
2.25
-2.31
-3.02
51.86
-9.78
3.34
37.2
-226.46
-5.73
6.64
24.36
2.74
8.1
57.08
-0.23
95.97
6.31
17.99
-7.28
22.63
-17.26
4.84
76.29
-1.49
-30.82
-276.85
106.55
9.67
53.27
10.27
24.94
-1.28
5.97
9.15
-8.05
-9.74
-5.39
10.83
19.2
-12.07
-8.21
55.99
-3.76
46.12
8.26
45
-13.27
-1.09
41.56
19.73
-9.12
-5.41
-43.39
-4.99
-2.46
10.39
-3.11
-2.69
-7.15
-5.38
18.17
6.05
-69.87
4.62
-173.61
13.72
-20.59
-63.74
15.01
-34.31
11.17
-3.73
3.88
-4.79
-2.26
-45.68
31.72
6.62
104.09
-8.13
-86.67
68.69
66.57
19.37
-15.38
-5.92
9.15
-38.38
7.88
99.24
-4.05
-9.61
0.45
32.57
31.85
-8.21
8.34
-7.15
-5.15
-10.38
-47.29
-21.72
9.95
3.44
-40.72
28.46
-0.57
87.93
4.34
3.53
-13.77
39.64
3.37
18.59
-21.86
-88.56
-1.46
-5.04
-1.08
-0.24
24.68
-35.76
50.44
-6.6
59.51
52.61
56.47
-35.14
-52.95
-14.64
-3.35
47.29
27.94
24.78
50.49
9.95
-5.61
-13.72
-9.87
-95.14
-15.13
10.53
2.68
0.53
14.35
-99.26
35.91
9.56
-79.41
2.26
42.99
11.97
2.13
3.81
3.46
-115.97
-23.5
3.2
16.61
-33.08
2.51
-11.81
-3.18
-44.65
-4.29
6.37
51.88
-25.44
61.17
-9.4
-6.91
18.8
13.82
-44.23
6.01
-6.85
36.66
7.6
35.48
32.47
-118.05
23.85
9.86
-200.67
18.23
-0.17
-134.6
17.18
0.89
-18.1
3.85
-76.09
-55.6
5.05
4.06
-36.43
68.67
83.17
30.05
-9.23
-19.73
-56.14
-15.08
18.66
12.13
-18.26
148.28
21.1
7.06
5.14
36.28
-4.7
21.37
-99.05
30.95
6.75
-9.1
-46.76
-7.18
5.87
-20.55
20.58
-22.59
-29.3
-10.64
-95.7
-84.88
-41.05
-6.16
6.86
59.03
8.95
-9.68
-4.39
42.04
-12.14
-0.25
19.67
17.85
-112.17
-5.54
-13.19
6.39
72.82
25.94
-5.84
-195.94
15.82
-32.68
-8.65
-1.81
-14.72
195.16
-148.13
-57.28
6.8
-68.17
82.39
10.2
-41.86
-2.08
-11.39
-9.65
-42.38
13.41
11.59
13.14
30.63
-13.69
-1.55
-8.93
-11.07
0.25
6.2
-27.16
-38.78
-5.61
83.16
-1.41
-10.54
-15.4
15.31
42.44
-80.11
10
-8.9
-14.83
0.82
52.66
-3.29
18.68
1
-22.4
35.79
-16.51
0.61
0
15.66
2.08
9.01
-66.2
26.31
6.53
34.91
-109.47
12.54
-35.27
9.96
8.08
7.72
47.71
-11.42
-32.07
248.95
20.96
-50.8
-8.03
58.98
-13.28
100.46
-48.42
7.19
72.57
103.73
80.23
24.15
-7.79
-6.17
-41.05
7.19
8.04
-80.67
25.1
38.77
-51.87
33.65
22.54
41.41
10.49
5.33
48.41
-56.1
181.96
-63.93
5.67
-49.14
-38.82
69.25
-22.43
14.02
40.04
-14.15
-73.77
7.32
-5.13
-82.88
-108.27
10.64
-1.82
53.1
1.56
43.44
24.38
-20.63
-4.41
-6.54
22.82
3.49
34.27
107.54
-11.87
0.19
30.61
-11.2
52.08
56.43
-14.86
-5.67
-80.07
5.32
-52.7
38.17
2.56
14.75
35.09
9.77
51.01
9.36
7.42
4.72
-8.51
2.65
7.38
18.96
14.56
-168.65
-7.93
50.21
-31.66
-46.03
0.26
24.55
1.38
-31.94
-2.13
-13.24
-8.26
13.95
-35.91
54.73
13.55
-2.43
-4.42
-13.96
-18.99
0.99
-37.44
-50.58
11.22
49.55
49.95
5.43
56.4
-7.46
1.17
93.3
-4.64
-8.47
-1.44
-2.97
26.55
-29.22
-88.81
4.53
-115.53
18.98
36.93
-9.28
6.99
21.93
-40.6
37.75
3.28
-71.32
-2.94
-24.51
0.46
-18.79
64.25
28.95
16.09
7.56
18.93
-11.37
-5.12
4.17
-3.28
-17.63
-0.54
-25.24
10.34
31.42
-31.3
11.07
-2.48
-3.32
1.06
-11.96
-0.9
-3.56
-79.31
76.33
-6.91
11.63
4.17
12.2
7.37
48.46
-2.58
-13.02
6.25
30.2
-14.6
-53.25
3.59
-5.85
-7.27
11.55
6.68
-8.5
-1.42
-170.87
-4.78
-215.35
-5.33
-7.73
-1.26
1.56
11.3
26.08
-19.63
12.43
4.16
9.18
70.58
5.05
6.42
16.13
22.61
14.35
-20.49
9.86
10.61
63.47
76.1
24.22
51.86
-25.23
22
2.29
6.94
83.58
13.53
38.46
-5.54
88.41
13.45
10.04
5.67
98.1
6.97
18.11
-38.45
-38.37
-5.29
14.05
30.97
-38.53
-30.74
-23.88
-2.29
-5.51
0.43
-171.49
0.3
-174.03
141.54
4.44
-54.89
-5.38
-51.05
2.82
68.19
6.19
-77.53
6.5
-4.89
42.72
5.6
-9.76
-9.18
14.71
-13.31
46.05
-11.7
29.6
7.95
-194.85
74.53
-23.15
-6.63
10.05
-37.68
-61.11
-10.03
-54.62
-12.53
-10.69
-3.49
-8.97
7.13
-22.33
5.1
9.33
-37.49
11.44
31.64
14.97
-4.17
-35.03
-1.88
67.22
-68.88
8.85
96.77
2.37
-10.72
12.32
9.44
105.32
9.2
2.43
-9.95
-43.87
-3.07
-8.28
16.72
5.34
6.65
-7.71
-6.52
-9.22
-9.2
11.06
13.83
15.55
-13.31
251.31
-13.72
-7.33
3.55
-10.53
-65.83
29.08
-37.8
7.36
-16.92
-43.9
-4.79
7.62
9.26
60.32
6.37
-12.51
2.1
30.13
-5.58
-7.91
8.89
2.64
-16.28
1.48
9.86
0.99
37.95
-2.82
-17.47
8.65
-3.85
-74.9
-96.89
-8.9
8.68
-125.01
27.24
1.72
-10.18
-63.09
135.91
43.3
-54.96
-3.57
2.61
39.25
51.49
114.91
-23.77
136.21
-7.93
0.18
14.7
11.27
-7.48
-55.6
-90.92
26.06
-10.36
-94.03
21.81
19.12
10.7
16.15
89.3
39.4
-4
217.01
2.05
9.32
-1.74
-3.26
7.94
46.28
-129.2
-3.86
-127.79
-86.69
-2.52
27.97
6.17
-127.87
62.55
-6.61
-8
-77.4
-84.05
28.84
3.29
8.83
26.96
16.98
-10.8
-97.7
-33.94
6.77
-45.39
-16.37
-41.24
-6.45
20.67
57.71
12.3
20.98
14.1
-7.58
-47.71
-50.91
-38.31
2.2
-4.88
10.11
34.52
21.05
-29.78
-35.25
-20.7
30.94
-9.7
0.69
-9.88
20.76
29.62
-12.25
-11.41
38.26
3.95
-11.59
10.57
10.66
12.23
47.9
-11.97
14.09
-15.73
-4.99
-14.33
-14.84
-73.72
15.51
8.57
14.78
0.35
1.57
-127.05
-7.06
29.14
-3.49
0.86
31.65
6.57
-1.74
-12.8
-2.43
-2.74
-30.59
3.09
15.35
1.96
-63.59
17.6
-15.83
43.59
-15.51
29.5
-131.29
-43.61
8.85
4.42
14.72
-7.3
21.15
4.15
-36.51
3.8
-10.12
19.25
6.63
11.79
17.13
-27.61
0.81
50.55
-4.92
10.38
-17.06
13.46
3.31
-60.41
-8.97
8.81
17.91
89.01
101.66
18.85
0.21
-84.52
-5.92
-13.14
4.51
-102.92
-88.15
1.9
-20.08
34.97
-45.35
-3.39
-3.55
17.13
-32.58
-4.94
77.35
21.09
12.04
21.29
-15.77
0.57
55.66
-10.5
-29.79
-9
2.03
-5.79
28
-3.32
-15.55
-52.23
-4.62
-31.16
-45.34
16.09
-5.88
-3.57
-3.44
-93.25
-108.58
0.24
-9.65
-12.68
73.19
-128.17
-11.99
116.03
3.39
1.61
-7.68
-54.72
-9.74
10.76
-2.69
-17.86
5.94
-1.84
12.27
-2.65
17.15
96.32
4.53
-62.85
-71.21
124.55
-113.04
-1.47
-16.3
-13.31
29.06
3.05
-15.75
-4.6
-1.12
-1.23
-43.99
12.31
8.88
-15.22
-29.78
9.13
11.01
4.72
20.51
46.29
-18.26
-8.41
8.54
16.02
-1.72
41.04
13.99
3.59
-40.88
20.86
-5.67
-41.44
-13.18
-5.53
-37.77
32.29
-128.6
42.29
28.02
-22.2
-8.36
-4.1
23.82
-68.02
20.32
148.65
-59.02
3.13
15.16
-6.67
0.4
-18.29
-163.65
-12.81
-6.84
-1.19
6.73
4.93
19.14
-13.91
-3.31
17.2
-8.44
-7.02
17.76
48.53
-41.06
41.92
179.99
-1.54
33.99
-114.89
118.81
32.01
57.16
-13.56
7.89
7.47
49.19
-69.53
6.52
0.66
100.71
-30.87
12.55
-170.29
52.1
6.04
-40.12
28.31
5.67
22.57
-81.14
-15.74
-3.2
230.85
8.94
-8.96
12.94
-27.5
-15.3
-68.11
-4.7
2.72
-6.18
-10.45
1.2
10.03
-11.18
20.67
-67.04
36.86
-13.99
6.2
-12.25
7.27
8.7
-24.94
-79.65
-40.42
4.37
7.35
109.52
-24.25
-18.94
15.41
-45.97
-8.18
17.69
132.08
-30.88
-11.55
34.33
-58.91
0.2
13.2
-31.56
-11.56
-19.86
1.52
113.43
-9.31
21.93
-35.58
-16.84
6.17
-82.91
15.2
7.32
-30.55
-1.36
-54.77
8.77
-36.45
-8.56
50.17
-5.02
-52.89
-6.16
6.67
-1.31
11.52
-18.72
7.64
48.49
32.62
44.51
-32.98
34.93
51.84
-55.88
0.51
-45.54
-57.92
7.08
-8.67
6.81
-6.32
55.78
-2.21
-36.89
-42.61
10.48
16.12
38.6
-9.77
10.56
-1
84.6
-43.48
18.28
-37.87
-13.38
36.43
17.92
72.22
-7.36
11.07
-1.18
16.21
105.4
50.09
-27.82
172.58
-13.39
-44.79
-2.33
64.62
-48.08
-23.57
12.6
7.15
12.4
10.9
-2.09
13.41
35.18
-7.39
76.74
95.9
143.37
75.27
-8.65
8.17
-57.93
9.78
-1.42
117.72
92.92
29.06
89.43
-63.16
20.25
8.13
10.99
113.98
5.97
93.55
-16.6
6.44
-17.22
-18.42
26.53
9.8
9.7
43.81
-8.39
-22.48
-9.13
-159.36
12.08
4.46
-45.65
-7.53
33.07
4.64
2.71
23.34
-2.45
46.21
42.92
-11.68
-1.6
29.52
-13.58
17.2
-18.86
-52.44
-5.83
-59.26
68.36
-4.62
28.27
57.17
97.38
21.53
3.66
45.01
0.37
12.53
-52.98
-8.07
-28.51
27.46
56.4
-29.72
-53.54
16.44
39.69
9.38
20
62.74
-5.46
40.76
49.63
-6.56
-8.17
4.51
8.89
3.88
35.61
27.62
4.48
-178.96
22.89
182.44
15.84
-0.24
-51.43
-71.68
-12.72
-280.97
163.53
-54.7
-28.66
-10.15
-24.06
2.67
-61.81
84.01
33.19
-36.04
-10.6
-21.41
13.88
-33.56
-0.4
3.16
-56.61
-15.85
-0.45
-11.89
-2.04
-9.03
-48.51
-30.96
-46.28
-29.63
-0.9
-7.41
17.71
-100.18
-14.7
3.25
-24.61
62.84
11.08
-41.23
88.7
-75.03
-4.06
11.53
19.48
45.47
43.18
2.74
2.05
-9.89
2.36
-23.76
-14.48
11.39
-11.62
-3.65
-136.48
-10.09
-20.39
7.67
-7.54
-12.59
21.88
33.03
5.18
5.93
-35.25
2.83
-61.24
1.48
-2.09
25.35
68.87
16.95
-91.13
-13.93
21.91
-32.32
-11
-4.25
74.01
36.18
51.59
-2.44
-8.08
1.56
13.43
25.96
30
-27.91
-1.28
-3.45
-107.57
28.42
104.97
-65.07
17.43
106.53
40.9
7.79
-10.56
21.78
51.77
21.11
-9.21
-9.25
41.31
20.46
-18.84
-4.56
98.22
15.74
24.7
87.37
11.3
29.92
-2.94
10.72
34.7
21.88
-98.14
-72.74
9.97
-83.47
131.44
15.18
-163.21
-12.3
-27.08
9.08
-132.94
5.53
3.26
-2.38
-7.23
-19.5
16.59
14.25
17.5
20.01
-13.25
27.35
8.5
5.71
1.32
-34.45
-23.44
-23.85
-15.13
42.98
-10.55
4.07
-4.93
-10.74
-120.88
7.97
48.17
11.63
-11.37
37.94
-11.95
-4.5
-13.86
11.28
-13.52
82.02
15.71
12.11
-45.62
6.29
8.46
10.26
-102.05
-64.49
188.27
95
4.38
-8.61
-93.86
15.65
-32.07
-64.55
8.94
0.83
-109.58
-32.07
59
-81.11
10.89
16.66
-96.6
-100.93
-56.54
12.76
62.05
10.54
16.6
-8.08
-5.24
-53.25
-3.96
-4.48
53.16
-20.71
-203.42
37.98
-5.31
-50.18
80.59
1.78
-14.4
12.62
3.36
6.18
24.01
9.25
-19.71
-67.34
80.61
13.9
2.36
39
16.66
101.47
-21.09
-35.42
0.87
-30.24
36.65
-11.16
-10.44
2.02
-5.03
-9.71
-27.13
-9.05
-5.06
-1.79
-2.94
-14.17
-6.81
-75.09
36.59
16.29
-29.69
15.87
12.59
-5.56
-39.77
33.34
13.88
6.99
3.28
-34.18
45.76
-8.92
-35.9
20.98
-7.05
5.08
-1.26
-1.58
43.06
9.98
-21.61
-23.64
1.75
101.97
-18.89
-7.92
-3.79
22.22
-110.39
-32.53
23
15.96
2.53
28.36
15.71
17.34
-38.76
-22.73
4.1
9.94
4.7
-30.74
7.21
92.37
66.79
8.28
-95.63
10.02
11.38
10.4
5.55
-10.72
-43.8
-25.13
33.89
-41.42
9.84
-15.04
-1.49
-13.07
-45.59
4.08
2.27
-18.69
55.25
24.5
-142.72
-5.31
71.1
8.71
9.43
-8.89
2.64
-8.58
-8.42
-150.7
-16.35
107.74
2.41
17.58
-306.45
-9.23
127.88
-70.06
-38.48
24.39
52.99
-8.16
-9.96
0.98
-22.31
-20.04
-9.73
-7.85
34.79
-7.72
16.77
9.78
1.21
19.32
43.79
4.87
-13.47
-12.27
-38.75
-6.46
51.84
-11.27
6.18
-3.04
46.83
0.84
9.29
25.19
-83.71
-9.05
62.59
49.59
10.65
-69.35
-10.97
42.94
-55.7
-6.73
47.43
109.62
-59.31
13.18
7.54
-110.1
-115.01
4.41
-99.63
47.09
-8.83
19.45
-48.73
-6.56
35.77
-73.1
-11.39
0.42
20.39
44.48
38.21
-30.53
-0.6
-5.13
-9.52
16.88
-7.6
15.7
24.61
2.01
8.34
34.54
42.33
-4.52
52.65
-8.98
-4.8
59.06
12.29
12.86
-95.93
10.12
0.42
-9.44
-7.07
-121.01
-118.64
-21.91
0.6
48.37
8.33
-0.02
27.24
51.04
116.42
13.44
-14.2
-31.91
1.6
-27.95
13.58
-20.22
39.85
5.05
-11.01
16.57
104.15
39.8
-3.47
-83.43
-154.6
-6.22
19.13
24.16
-54.56
18.09
-1.88
-153.43
31.08
12.83
-13.65
-56.91
-13.79
108.48
-111.67
165.69
-31.12
19.52
1.41
-4.7
-25.32
135.67
-7.13
-7.25
-9.18
-4.21
32.29
3.57
64.96
65.58
11.63
-37.16
45.81
-8.21
-4.42
2.09
9.2
58.7
5.05
-11.75
14.89
-44.22
-4.22
-26.22
-11.26
18.83
1.39
-70.95
-12.23
-9.84
-0.86
4.37
-9.29
0.71
120.76
60.79
-42.98
-11.43
-47.39
2.2
57.72
-64.42
9.12
-5.79
17.55
81.31
-9.45
24.42
-68.25
-88.35
-5.27
-9.3
8.68
-0.11
-45.62
-0.05
12.3
40.95
122.36
37.88
-11.98
13.21
-57.8
65.01
-25.18
0.73
-4.3
-90.88
0.11
-14.84
4.88
2.66
14.14
-6.84
-51.78
-23.41
-4.7
27.69
30.12
3.42
-10.59
-97.69
-68.39
3.49
3.79
-9.86
60.54
-25.3
31.33
-10.37
-17.36
-18.78
39.28
11.52
-29.71
13.76
7.45
-98.56
0.91
35.5
-30.23
33.23
1.62
-33.01
10.21
4.98
108.97
1.51
10.42
21.14
-31.93
32.03
42.87
-10.81
19.58
-15.2
4.77
20.8
-49.09
10.53
-26.41
16.53
-64.37
2.12
2.49
-17.04
62.46
2.25
89.85
-7.27
-4.86
-14.42
-35.34
-25.37
-42.31
-10.07
1.75
7.08
-7.4
7.82
70.64
-2.43
8.65
79.28
-42.01
-12.66
0.05
1.51
27.41
13.31
-13.33
10.61
57.59
27.21
9.3
-5.68
10.54
-94.07
-225.59
-48.76
-32.42
78.3
9.42
-66.95
-27.71
4.92
-27.91
51.31
35.83
7.89
-3.05
6.17
11.58
-0.74
11.93
-16.63
6.06
-20.98
10.08
-6.73
-31.11
-6.38
4.02
60.93
9.43
-3.36
-33.03
-6.04
150.23
4.26
14.97
7.44
16.35
41.34
8.23
-131.64
65.96
-27.07
-4.55
5.3
-85.66
-5.64
1.64
62.45
16.88
3.95
-12.59
47.25
-7.6
13.98
8.69
37.8
63.24
-43.75
-38.99
-7.54
-40.52
51.08
-26.86
9.52
-12.25
13.36
-9.99
71.82
27.77
-6.16
-82.09
-8.27
9.23
-138.84
10.4
-4.64
-5.37
48.46
75.22
-4.28
80.97
67.73
27.42
-45.94
-184.34
-5.59
63.55
-0.08
4.47
-95.41
6.04
83.52
42.72
30.21
-13.19
0.38
15.13
14.96
-9.53
-31
57.92
-36.2
-10.38
-9.9
-24.93
-357.36
50.47
46.11
9.62
-6.93
0.6
34.23
-30.38
-17.71
73.98
-36.85
-4.76
-61.09
9.71
37.21
1.02
-134.2
-7.27
-4.6
-9.2
4.69
-1.35
7.12
-20.3
62.89
-161.32
70.26
-37.26
45.74
18.46
-6.77
-37.82
-35.59
42.2
9.04
-119.71
65.94
7.9
90.22
39.79
-8.7
-7.47
-3.09
-14.12
-8.42
6.07
-14.67
7.36
7.68
20.14
20.14
78.54
-3.81
-10.15
-42.59
-4.57
-15.09
-7.6
41.4
28.03
-5.14
-26.18
-15.83
40.51
-45.8
5
9.07
12.02
3.01
7.78
-14.67
7.75
7.66
3.69
4.33
-9.51
-8.48
-38.33
15.38
-53.66
9.6
-22.32
2.22
-6.42
10.54
-15.96
-31.05
5.13
14
-1.11
-106.94
-50.18
-3.09
76.53
12.21
-16.31
-15.64
-3.34
10.86
-59.76
13.34
17
9.72
-10
-0.12
-7.86
-1.2
48.58
7.14
-10.8
-3.33
16.2
62.73
1.05
12.3
50.04
43.27
-24.03
-102.7
93.6
-4.59
59.8
60.15
3.15
-1.8
17.84
12.95
11.23
95.13
-11.33
-0.52
-5.14
-102.07
85.85
37.11
8.19
1.38
-8.14
-3.97
12.22
6.63
0.09
24.96
-25.77
5.17
7.25
-28.43
4.38
-5.21
7.69
-3.5
23.23
85.58
-75.42
13.82
11.44
-179.34
-2.09
-18.41
75.35
-145.34
6.74
46.52
-0.86
-2.51
40.11
-12.17
8.34
26.54
-9.76
2.68
3.24
11.25
-24.64
-41.05
19.89
-93.96
15.1
1.2
14.18
-141.68
4.27
-5.98
-9.05
-63.35
11.14
-21.29
-7.8
-12.42
1.64
83.44
74.47
10.92
-13.55
8.36
5.97
35.14
-20.97
-8.85
-8.98
14.47
13.6
18.88
15.23
79.91
22.43
-14.17
129.82
-8.3
34.85
24.72
-6.96
-63.06
-5.53
-75.41
-16.7
-48.29
-4.73
-2.35
-99.93
39.49
2.78
5.24
4.66
10.24
46.19
2.4
45.73
-13.09
33.36
4.45
-59.14
109.54
60.89
14.76
-15.54
40.23
31.76
13.52
-2.7
-12.21
91.72
30.76
-8.54
-0.1
-15.53
-8.66
-1.09
67.82
5.02
-6.18
-16.64
-61.3
-37.38
-59.71
-15.94
-40.17
41.29
50.58
-13.46
34.87
48.31
-61.65
57.38
-9.31
-8.31
90.83
48.27
-12.76
-6.6
-13.08
-8.56
1.9
7.77
67.13
-91.3
-33.22
-12.89
2.68
-5.21
7.46
-25.36
-58.51
-179.36
0.37
18.21
12.02
9.61
-19.24
101.11
34.89
-5.32
-21.49
54.94
-8.46
-27.79
-22.16
14.97
10.78
22.47
11.54
-0.75
-5.78
16.5
17.9
118.85
-98.93
-7.34
74.94
79.44
89
-110.77
6.22
-10.61
-131.49
-13.41
71.67
8.19
-1.67
-8.67
-1.41
48.37
7.65
-17.11
12.42
3.83
-39.75
-24.45
-6.03
-0.9
-7.93
14.76
-9.06
34.78
0.21
-46.8
42.41
-2.91
52.69
20.35
-50.25
-32.63
-0.48
3.42
-3.21
10.84
2.96
-89.65
10.41
49.9
53.35
8.22
-101.18
28.49
54.8
-22.93
54.91
-71.96
-43.29
-40.8
-119.16
10.32
19.32
27.99
5.77
-2.32
6.38
10.91
12.92
9.76
39.15
5.2
-14.84
10.07
155.7
-2.57
-31.17
-7.57
9.24
-3.92
-27.39
27.91
-48.94
9.77
12.82
-11.79
-17.34
4.79
-18.22
72.35
8.57
-26.9
35.22
-21.86
-10.1
-8.84
3.11
2.2
64.61
61.53
-6.36
-80.94
-15.06
4.29
-3.04
45.72
50.32
13.89
74.11
0.08
-3.96
36.81
-0.06
-88.45
12.98
33.44
-78.83
25.14
106.14
-10.57
-1.78
-5.09
-3.8
14.5
11.64
-22.06
40.97
-14.52
61.06
14.08
78.23
-4.05
-65.92
7.99
-50.87
-149.33
-112.65
-12.86
-37.55
65.01
-53.26
-3.4
4.95
69.27
-1.22
12.8
11.74
38.06
23.6
5.09
26.77
32.98
-38.61
-54.44
-8.12
-12.93
-45.71
10.21
-12.36
20.74
15.83
19.88
4.57
7.15
10.05
21.36
2.87
-98.31
-70.95
-73.61
16.2
-16.85
169.34
-45.92
-13.44
0.1
0.67
30.73
-103.77
-99.14
-128.43
-24.11
-8.51
-0.48
-47.96
-2.12
28.62
-36.48
-11.61
26.67
-94.6
-36.42
2.79
13.56
-5.94
89.03
-41.99
-3.88
-3.59
47.13
1.53
-19.2
16.13
-13.55
4.8
11.51
11.97
8.13
-46.11
4.14
-9.32
35.86
43.16
8.72
-5.09
31.27
-143.7
-5.1
6.73
39.93
-10.19
-35.13
-4.08
101.21
6.44
-66.33
-31.1
0.25
-351.43
16.13
-12.84
8.58
13.2
68.6
3.64
-32.6
-4.49
14.11
2.48
65.47
-4.74
-7.14
11.44
-9.09
-4.08
-18.37
-123.15
-65.44
-17.16
-178.26
-16.43
54.16
134.38
-1.45
-15.16
-9.75
-6.12
1.59
-117.8
40.94
4.15
12.55
97.1
-107.8
86.42
71.2
9.7
112.46
-14.8
58.28
60.72
-2.08
24.37
-38.28
9.57
43.83
55.81
-10.87
33.83
8.66
115.28
1.46
12.13
-57.62
-0.96
-4.42
48.48
73.01
0.75
42.45
-80.54
36.09
-65.17
-7.93
-7.56
-2.95
9.84
10.04
49.1
-28.59
-10.2
-9.84
22.8
-0.7
-66.15
-1.15
-16.1
5.06
61.05
-8.54
-2.02
48.91
-45.25
15.32
-55.86
13.67
12.72
5.61
-127.59
68.1
113.84
207.69
-14.8
7.53
-5.44
-16.65
21.47
19.53
-11.34
61.95
-34.49
1.69
-29.48
22.62
9.68
2.81
33.36
38.7
16.56
24
13.11
2.59
-12.67
105.51
17.56
26.51
105.97
-10.39
-44.53
29.83
-66.36
69.19
-8.59
24.84
-9.73
-18.71
-24.73
-0.27
-43.69
-31.4
-23.45
218.22
28.58
-24.96
40.25
2.64
20.21
4.7
-50.74
117.85
139.29
-0.56
3.67
-179.72
-3.88
29.59
115.59
14.51
-1.95
13.7
40.36
-19.39
7.81
10.07
-1.65
-116.33
2.99
-9.13
-77.99
30.07
-4.11
-5.27
-7.13
-7.96
39.35
-10.15
25.48
8.73
49.22
-9.05
9.66
3.95
6.71
-2.26
43.23
-7.29
12.76
122.43
75.89
59.73
5.98
10.43
79.45
-99.74
-10.51
9.8
-3.48
-23.65
88.81
8.75
-7.92
-1.43
-8.44
40.39
45.67
-91.15
35.54
3.73
-5.38
-140.03
-3.95
-23.38
-13.69
-6.23
30.22
-92.75
0.89
-80.33
-252.33
-5.69
-74.53
51.36
25.61
-123.56
-28.7
-4.23
-21.96
44.84
-0.35
-19.44
37.84
53.09
13.31
-118.54
-19.64
-8.08
-12.96
-0.87
-55.11
-13.87
-70.83
-37.85
-35.75
-6.64
-3.66
-0.25
7.02
-22.48
10.28
-47.98
10.35
27.61
40.53
39.89
37.62
1.97
3.32
-30.31
38.53
1.13
-236.15
-105.48
-21.39
4.16
42.54
-0.5
11.24
12.45
-41.43
-17.71
18.59
-58.49
-9.88
41.29
37.89
8.49
-2.79
-25.45
-31.39
-38.67
24.82
-30.41
34.17
-6.24
10.84
12.51
-10.1
-71.47
46.26
-34.79
20.54
-27.38
18.65
5.97
-11.25
3.39
14.32
13.27
20.18
-6.27
1.03
6.81
-10.19
76.02
5
-14.85
-0.63
12.37
27.66
4.54
39.87
30.39
63.33
7
100.87
78.2
-2.04
-107.63
2.33
-53.73
-93.35
-1.43
-5.37
23.98
6.6
-99.65
8.04
-12.29
6.21
-7.86
-13.04
-26.28
-4.49
4.66
19.95
-16.27
11.04
-33.81
-48.58
-8.38
-50.47
33.91
-6.26
-3.68
13.17
17.22
-30.74
-18.53
24.62
-56.09
-6.11
-23.18
23.16
29.03
-85.43
-49.28
19.18
-63.49
-6.77
16.87
-1.71
44.08
-93.52
26.49
-146.64
8.58
-60.97
2.91
69.95
0.24
-17.97
8.39
-76.84
4.88
10.04
14.65
5.7
86.43
-73.14
8
-14.22
19.91
48.04
-48.87
15.95
-6.96
155.41
-7.06
-43.96
-6.5
-7.27
5.65
-153.7
6.44
30.32
59.08
-7.58
11.57
11.38
0.59
-9.72
4.48
5.15
29.76
-22.6
16.22
-4
-16.99
-27.48
-9.54
4.85
82.06
12.33
-10.65
-26.35
-39.13
-28.35
4.75
28.25
75.2
-46
-14.33
58.37
129.21
15.09
198
7.38
-37.3
-7.36
-1.63
-127.53
-5.91
16.01
33.63
45.17
61.57
5.43
-31.23
-5.3
-20.24
30.22
28.97
47.52
145.54
-12.4
-6.95
-33.57
5.5
16.96
-32.67
110
45.08
-22.88
0.35
41.12
-6.12
-160.34
13.87
-0.68
47.56
92.01
1.97
-56.07
8.57
-16.05
85.5
-10.3
-68.48
-0.9
-16.43
-4.28
5.21
24.21
-15.4
-8.88
-3.62
-11.51
-21.87
70.67
-9.2
-42.21
115.23
8.82
46.58
6.77
12.92
79.44
94.9
2.8
11.68
-18.52
61.93
-1
43.5
-99.6
-4.77
60.96
1.25
126.14
57.2
-14.09
-12.82
21.17
14.45
3.55
9.86
-33.53
57.46
-20.53
-24.59
28.6
-8.04
-97.9
29.48
-52.59
85.33
-82.55
0.77
-13.84
-7.87
7.23
-8.86
11.62
-73.33
29.12
5.74
33.84
-2.16
15.26
6
5.48
-119.62
-237.39
-13.9
-83.38
84.54
-4.23
23.81
-2.51
35.59
-71.69
5.29
-8.9
29.81
5.7
-11.15
-404.76
-9.33
-12.25
98.48
-3.67
-12.29
-4.68
-7
16.2
109.97
-11.57
10.47
0.69
-45.76
-98.45
69.57
20.05
-5.53
-10.4
-6.17
-114.91
-2.94
-13.5
64.37
-10.27
-2.43
-16.08
-6.26
7.38
-1.4
19.57
5.26
-9.99
-65.8
6.92
-0.7
-57.81
-18.59
3.15
11.17
17.45
-68.55
4.47
16.72
-10.35
53.07
-10.14
-9.71
-136.79
18.76
-10.1
-53.78
57.03
-66.21
11.45
-25.77
-107.32
-21.73
24.36
-33.8
-39.52
21.12
14.18
-29.05
-1.19
-55.59
-57.84
45.45
6.54
5.97
10.05
15.79
40.62
61.46
52.87
28.02
66.29
56.39
-69.64
-10.65
-4.64
0.34
-9.47
-1.17
-46.87
15.72
34.04
-5.99
12.53
-1.83
-9.26
-46.93
8.81
5.77
24.34
0.76
36.48
-12.9
12.67
6.24
64.28
-3.41
-18.19
71.97
-15.05
13.44
7.21
-40.42
-5.61
109.07
34.28
10.83
-8.61
-163.01
-6.64
3.44
-31.7
7.47
-5.66
-37.79
70.16
1
113.46
-112.87
88
-7.53
-5.45
-60.87
-4.04
12.91
37.95
-51.51
-28.94
-39.98
-40.1
8.66
-45.68
-60.46
14.76
11.24
30.09
35.32
-2.22
-19.78
3.01
26.4
-35.27
8.4
-10.26
18.93
67.32
-71.03
-31.71
93.55
57.25
-1.63
91.23
-3.65
-10.8
-0.37
1
-2.9
5.53
-5.13
-13.31
9.67
2.29
-92.4
-30.57
134.22
88.71
14.51
-71.86
5.91
-1.48
-69.01
54.28
-5.74
60.22
30.32
9.84
-15.87
27.41
-2.38
5.87
39.83
-112.42
-6.57
6.79
159.11
62.63
57.63
7.83
-24.49
5.35
25.96
-11.05
-108.19
-102.12
-126.99
-67.24
-35.37
4.18
-202.18
-19.18
-1.95
-25.55
-51.59
-13.03
49.75
84.23
25.59
-85.56
-62.74
7.28
5.74
-7.24
11.49
14.42
-13.84
28.64
34.64
2.68
-15.53
11.4
-7
17.32
8.61
48.93
3.57
23.61
-90.45
41.56
52.61
11.23
-104.75
28.08
-28.58
187.92
10.36
7.8
-17.21
-33.09
12.85
-1.48
-54.01
8.15
2.02
-15.48
-42.67
-43.29
29.69
-38.9
-4.22
28.41
-29.58
19.68
-13.71
-37.1
-36.25
-77.36
-64.84
-70.28
-21.01
12.33
7.76
-55.86
-8.44
62.24
10.2
11.59
-0.28
34.56
8.33
-2.85
2.19
16.6
107.9
11.21
-23.68
3.63
-43.48
18.9
32.46
6.15
-174.02
-22.98
36.62
-24.22
-14.38
-2.4
3.9
-39.67
53.61
23.74
-39.67
-87.72
25.23
69.27
48.94
-73.4
1.93
-33.59
-2.97
12.96
-74.48
25.65
10.35
1.73
-8.14
5.91
-1.07
-7.1
-11.12
8.17
-38.11
-96.44
-22.87
-52.78
0.84
-45.02
4.82
1
-85.18
-13.81
-98.2
36.32
-43.15
35.09
13.38
-7.62
-11.48
8.94
8.23
-29.25
-6.82
2.53
26.25
-34.81
2.94
12.38
5.54
27.79
12.3
69.85
11.47
3.82
-12.31
38.16
-17.98
6.1
51.5
-22.81
92.27
-1.98
7.68
12.6
40.87
9.94
-25.3
9.58
-3
170.75
19.18
-26.37
-9.45
-11.19
-10.67
-47.94
-14.7
40.59
-66.34
7.37
3.38
114.54
83.27
65.54
74.01
35.3
-3.97
-14.64
57.79
-8.26
-3.98
18.58
16.09
17.68
-164.41
-248.68
-11.11
85.46
-7.27
40.96
-24.05
-23.34
-13.36
57.36
-1.69
-1.96
-11.49
-74.2
12.48
46.23
5.24
37.27
21.57
-6.55
52.27
5.58
72.99
30.33
-28.92
-5.84
-2.04
-4.89
7.58
-1.62
7.19
-105.59
-50.95
34.31
75.33
-5.23
-9.66
-83.13
82.27
-161.15
63.86
65.69
-11.37
34.71
-136.55
-8.5
49.99
17.31
-24.54
12.7
-53.82
-6.32
3.94
-18.47
11.6
-42.9
-14.21
-27.95
-73.68
45.06
9.66
16.16
13.82
-1.15
8.39
68.06
37.45
2.92
-25.18
-4.36
-5.16
11.62
6.29
56.99
64.56
-7.73
3.43
50.4
3.31
-7.79
19.01
-12.94
6.56
-17.38
20.62
18.11
-31.79
-48.76
-67.21
-0.24
-0.76
17.87
-9.94
-82.07
-13.28
0.42
48.73
-31.46
-48.64
-17.56
-2.94
-25.79
11.52
6.11
-7.71
8.06
24.83
88.61
-38.83
-6.14
-10.88
6.17
15.49
-9.68
-8.23
129.02
78.97
34.9
-21.07
-15.99
-134.96
-7.57
38.08
34.64
13.11
-23.13
10.85
95.16
12.69
10.27
26.51
12.65
-2.53
40.93
4.1
-4.06
94.07
-3.79
-14.71
17
-2.1
1.82
26.58
26.83
-13.15
100.49
36.69
0.13
76.66
0.96
-164.48
-8.81
-8.88
-9.69
-8.67
15.09
54.57
25.46
6.26
14.14
4.17
-4.56
34.15
68.85
-14.62
-6.45
28.98
61.49
-31.44
-87.37
-28.02
33.85
31.34
-7.57
53.07
4.42
-32.24
-4.68
-4.69
-55.2
-5.07
5.11
-0.63
10.19
125.7
12.22
9.69
69.66
9.89
24.57
-1.57
7.5
-64.22
16.42
-19.34
0.33
-94.55
50.61
-13.41
0.13
-9.62
59.57
24.38
0.25
-22.37
-8.78
-10.15
53.45
-8.25
7.05
47.09
51.13
51.11
-9.88
-46.64
57.78
59.74
0.37
-11.83
-15.78
19.19
3.87
8.75
5.53
31.72
2.26
-10.77
-0.92
4.43
1.94
14.64
28.57
14.69
-41.9
-76.59
-4.67
99.59
-49.09
-10.44
-9.57
3.48
6.12
-80.31
-19.92
-58.76
101.26
-16.79
-5.42
-26.83
-28.34
-14.8
51.51
-20.62
-91.89
-2.36
-5.1
-1.82
6.2
28.72
-28.45
40.22
-0.08
-84.57
0.92
85.03
56.48
-76.55
11.46
17.37
8.7
-65.43
8.75
-1.36
11.55
-5.52
34.07
-14.74
83.77
31.84
11.16
49.34
-26.89
6.97
-16.31
-12.08
53.45
14.61
-49.18
-5.99
5.53
242.36
-66.61
47.17
-50.45
-6.93
14.87
9.42
-8.3
3.39
1.03
33.75
-3.87
10.54
-4.12
-9.39
4.9
-0.54
-36.91
1.94
42.65
19.88
-6.99
-8.73
4.58
-13.13
-72.12
5.37
-22.69
0.1
21.41
-8.9
-65.58
-243.37
10.68
-24.08
3.69
19.02
5.8
25.98
13.29
-28.95
2.17
0.8
-114.85
-50.56
49.3
-3.24
1.99
36.39
-10.45
-46.79
75.47
-1.24
-1.8
-36.44
-14
-22.39
-44.57
13.08
16.16
15.52
-35.42
101.14
-61.05
-26.2
-21.38
-7.49
85.04
14.32
-14.54
-70.37
-10.79
-3.93
7.18
-29.34
39.99
-6.99
-23.4
58.85
32.16
-23.93
-9.35
-47.91
-6.17
5
2.62
-1.36
6.32
24.56
16.77
-86.67
23.78
0.63
-27.12
-79.88
-14.24
8.57
-9.72
8.12
24.54
-77.89
22.75
35.7
-194.44
-63.34
22.42
8.29
-8.79
-11.83
1.09
9.73
96.48
1.76
8.54
31.52
15.57
29.36
-5.09
4.5
9.54
-35.63
92.07
-63.28
-155
38.37
-6.09
-54.01
-31.48
84.64
-18.77
-15.8
-0.81
-27.87
8.72
1.84
-14.11
4.26
-4.26
-25.49
-5.66
8.04
12.47
-55.41
41.17
-12.38
-17.7
-9.57
-4.43
88.99
10.13
-18.45
-55.62
-11.4
2.71
-12.64
5.43
8.64
6.62
-25.58
105.38
-68.29
11.65
88
54.33
7
-8.27
17.33
2.5
7.88
72.24
-99.91
-20.87
0.19
-30.8
64
43.75
-124.15
29.28
3.1
288.44
-23.97
14.22
16.77
-91.25
11.14
16.4
10.14
-41.57
-10.76
-62.31
50.83
-0.39
11.12
3.37
10.35
-11.2
22.48
40.64
69.91
20.47
-57.44
-67.37
7.59
1.4
-3.78
-44.82
60.9
4.07
-7.08
60.01
-14.61
7.42
-20.17
-0.65
-4.82
79.9
-6.15
-10.09
88.22
7.86
7.51
63.57
-2.8
-85.51
-10.05
-3.99
22.78
-1.27
-3.06
10.08
-31.21
7.7
29.31
21.97
-5.84
6.2
-0.11
28
-49.36
-325.48
-1.84
-4.6
6.6
-5.38
-342.92
8.15
-10.02
31.61
-3.35
-0.63
1.55
-10.66
-14.08
-36.32
10.57
-3.15
8.38
-66.08
-11.12
8.87
-7.62
-80.14
41.72
-3.74
-5.66
140.22
14.74
1.44
75.72
31.6
-7.07
-6.36
63.27
5.89
-74.81
36.7
30.72
-5.35
10.04
-75.55
25.8
-27.7
-17.95
8.74
2.94
9.65
75.13
-131.89
109.04
45.15
-3.39
16.66
3.72
-14.02
-2.77
-70.16
-94.35
-66.99
7.62
35.28
-43.72
9.9
1.73
84.36
25.39
174.56
-126.39
-46.1
30.08
105.18
30.22
-16.36
-5.73
2.97
-8.04
62.47
14.05
89.23
-1.74
-7.34
-22.79
65.01
6.08
8.81
-8.62
-1.77
12.53
-108.22
-97.47
-72.4
1.03
5.68
33.34
-2.24
28.07
-11.48
17.77
-17.01
33.14
312.37
-2.12
-70.65
-11.01
9.83
-25.75
16.77
-0.83
-64.37
26.04
64.05
22.25
-15.57
4.66
-4.59
9.85
56.54
8.94
-5.56
7.55
19.78
-44.42
18.97
-8.69
-4.13
-48.64
9.68
10.39
-30
6.27
29.8
-36.72
-30.91
-11.4
-12.95
-24.93
-17.44
-35.78
12.16
-33.84
-7.9
2.59
9.28
-12.44
-91.18
-8.27
13.06
69.38
108.48
-14.49
-9.65
-40.13
-2.37
-32.6
2.88
10.85
-13.01
-2.14
16.32
-26.47
6.72
18.27
-12.06
-91.84
-2.54
62.58
14.12
86.64
32.56
3.19
4.61
12.11
20.96
3.5
32.24
-6.06
-1.08
-130.91
6.39
-15.86
-62.5
-21.75
118.09
0.76
4.49
-0.98
-60.32
17.19
-12.09
63.17
-12.96
-8.91
-54.74
-66.05
18.04
-70.31
-61.25
17.42
-12.4
4.91
-57.64
-88.05
1.83
14.33
-32.65
75.68
76.51
17.61
-11.48
7.37
41.78
-36.44
29.31
50.94
-14.41
78.37
38.39
89.28
5.53
-38.68
-9.84
-15.4
-9.22
-12.09
85.25
185.22
-17.25
11.44
-229.47
-1.68
-158.64
14.69
-15.27
6.77
19.17
-26.8
66.9
-12.73
-77.51
9.92
13.86
0.43
5.41
0.46
-10.45
0.45
3.3
22.54
-36.43
-0.26
16.09
-4.57
40.76
-2.11
-20
20.82
-66.52
-10.5
-9.77
-11.99
1.2
5.99
-24.17
40.69
3.21
40.66
72.88
-1.92
-29.66
28.92
-54.89
-88.95
-21.65
-1.26
-49.68
-4.95
-0.58
14.48
-6.78
-10
40.99
-36.09
129.31
-5.93
23.81
7.97
-9.62
70.42
-24.59
-199.67
1.6
19.75
64.26
-38.19
0.23
15.33
1.58
-3.84
-24.51
-5.79
-11.96
49.94
-133.04
-15.99
-75.48
4.11
20.14
-15.27
-8.8
-41.59
-8.18
11.36
57.68
-2.85
11.23
9.89
2.86
-3.26
-5.79
-3.56
16.69
-9.25
81.74
-16.71
-41.52
-17.3
5.46
-35.99
10.9
15.94
1.28
87.69
-1.83
-8.88
-3.31
-108.36
0.49
11.97
2.75
14.96
-82.52
17.97
-193.75
-9.81
15.05
14.67
9.37
-1.71
-30.96
57.36
12.71
0.33
-17.79
9.58
0.47
1.16
-56.85
-119.05
33.17
22.27
-78.37
-13.15
62.43
8.49
-30.82
28.1
-15.79
-44.69
67.39
-3.36
7.9
92.45
14.74
7.16
-2.48
-3.74
132.89
36.08
5.45
-79.47
-14.2
-37.1
7.12
8.07
-109.8
-11.51
21.55
92.92
3.21
-111.96
8.19
-109.73
-42.72
-97.87
-168.77
-22.65
-7.44
31.66
-10.83
-11.84
2.28
21.72
-79.56
-228.4
-7.9
96.36
2.9
49.46
-5.86
-65.77
-13.99
-4.9
81.74
9.23
0.9
-186.23
4.98
6.81
-10.96
-3.26
2.04
48.4
-9.14
4.01
7.16
-10.29
-49.36
43.31
-5.1
85.94
4.01
-118.48
-6.33
4.71
-56.75
61.47
12.87
-1.59
-48.32
58.07
34.77
22.11
17.99
-156.26
-119.27
-42.32
-7.38
-0.14
-16.48
-51.07
111.7
-240.86
-1.13
-7.4
91.38
72.91
-13.08
10.4
1.62
53.84
-79.2
42.97
49.11
-71.32
-13.59
-40.05
-29.82
85.01
-21.33
-16.38
35.61
2.97
13.69
5.55
50.86
-10.84
69.56
21.71
1.2
2.8
-27.57
16.39
11.76
79.07
9.22
46.51
0.94
68.66
-11.1
-11.06
45.02
70.93
34.22
7.1
-6.15
51.92
54.43
43.39
6.61
9.63
-37.18
42.03
0.05
-1.42
8.63
-10.33
3.59
-4.02
0.86
13.66
49.44
3.92
-3.1
34.51
149.09
4.4
-6.62
16.55
-0.72
24.5
70.46
-0.96
3.93
-108.13
-23.45
81.76
3.05
15.28
-0.86
78.62
-11.94
-7.06
19.06
22.3
-8.82
7.48
21.23
-1.23
27.72
3.94
-8.15
-4.28
-36.98
-187.1
-6.75
-11.7
9.08
-7.39
-6.85
-158.76
-12.08
-4.39
21.07
-3.19
-27.84
-7.92
4.29
4.43
-9.35
-39.62
15.62
52.79
16.51
-13.2
79.69
-38.22
44.09
243.73
-0.48
-8.45
-6.89
48.22
-86.87
-1.84
-6.94
123.02
-8.21
10.22
12.39
3.49
-44.08
47.09
5.86
19.35
127.43
2.19
-7.13
-16.79
22.23
-31.44
3.84
-80.4
2.52
45.2
17.36
-0.02
139.09
-48.38
86.31
14.46
-46.94
-8.65
17.13
75.62
-14.85
-19.15
-103.22
-7.86
-12.93
68.91
10.04
-31.55
92.65
-23.36
-130.26
3.76
13.11
42.46
1.93
15.33
7.67
-101.1
9.42
9.86
-94.61
-10.55
42.43
42.17
7.44
9.25
47.99
-8.02
-25.56
-3.31
-12.59
-14.51
-13.57
-5.31
1.05
17.54
-39.17
-4.61
5.22
-61.95
-8.07
10.72
-47.95
60.44
-11.24
-4.07
3.35
9.4
19.73
-5.41
12.84
6.48
-41.43
9.82
-2.03
2.6
-22.74
8.49
63.07
1.18
5.17
37.49
-9.79
10.47
-21.21
9.25
10.09
27.56
10.5
-46.19
18.11
71.3
47.78
29.75
-14.28
9.7
0.09
78.54
8.83
-3.17
40.73
7.69
55.31
-15.16
6.58
-66.17
-154.37
-51.01
-152.56
-34.28
5.89
5.62
42.64
-36.38
15.81
1.31
-118.34
-9.98
-11.23
-5.17
3.17
-33.88
-64.26
-1.41
-22.14
84.16
-25.49
31.58
65.29
-29.8
-8.34
-5.23
83.32
59.02
-112.01
-1.37
-7.4
23.5
79.57
91.07
9.53
3.09
-3.79
23.74
0.46
29.11
-1
-1.03
75.49
-8
109.47
-8.43
24.21
-103.26
-23.31
-0.45
-44.79
75.25
-6.49
-5.04
8.88
1.22
10.01
0.68
4.17
39.67
-10.45
-30.42
-69.36
-7.65
-33.28
-45.17
8.69
4.45
-2.18
-4.2
1.52
-37.24
-0.49
-100.68
31.63
96.39
-6.23
-6.89
-3.4
75.43
10.93
-102.47
12.59
29.03
-7.52
45.33
-110.25
-103.07
-11.72
-131.37
-115.31
-25.68
-8.51
13.49
-132.09
-86.48
52.6
-4.04
-94.44
169.73
13.48
-3.28
16.99
-65.34
5.64
34.23
-74.69
-7.79
38.78
26.16
-7.52
-13.28
-31.73
-197.88
-12.5
45.99
52.46
-284.33
18.03
10.58
-17.95
143.28
-0.8
226.08
10.59
-5.48
-2.22
56.77
-16.79
-12
-20.82
7.06
10.53
-100.04
16.69
2.24
-2.8
15.88
26.05
25.66
-8.77
6.91
49.14
13.27
-16.46
-1.28
52.08
16.81
9.71
7.63
0.97
-9.02
44.15
13.48
-32.86
11.7
-10.99
-0.56
10.92
-45.93
-78.65
6.89
-67.86
16.14
-3.27
7.79
-3.05
-14.07
47.48
49.72
67.52
0.75
33.94
120.82
16.49
8.79
29.14
113.07
-4.62
83.67
-2.27
-0.68
-1.91
76.62
13.75
-98.96
-46.13
-18.22
-21.24
2.73
37.66
34.9
0.54
0.74
-4.46
-1.56
27.6
115.04
8.44
-11.47
-5.8
1.09
-34.87
7.28
-13.15
-11.33
45.48
-3.18
14.61
-6.86
12.66
117.17
16.99
-0.08
-58.65
-8.95
-21.06
2.72
-10.06
-44.55
64.9
26.48
-68.8
5.15
7.14
22.5
22.79
4.28
3.84
8.99
30.6
7.8
4.93
30.47
5.85
-5.53
-5.93
-155.37
12.51
-32.82
-12.7
-91
-29.27
-8.49
44.34
42.51
-49.23
29.51
1.38
51.38
16.37
-13.37
20.68
8.31
74.41
20.64
5.27
10.95
-4.2
-5.24
20.91
45.1
-100.46
-4.03
3.79
-22.76
-13.52
-6.62
12.85
-34.5
8.37
-6.78
-57.78
20.1
-22.12
-33.8
-18.61
-39.89
40.56
-7.18
-3.46
-64.1
11.35
2.86
55.42
8.3
-53.88
18.85
-9.67
21.01
-3.88
2.78
4.57
18.37
44.43
-10.15
-43.13
-39.68
5.48
3.47
143.11
-35.63
-8.01
-20.63
12.27
15.95
-8.29
5.64
35.29
-193.36
11.23
-77.78
8.18
-8.95
13.76
26.8
22.69
30.35
1.21
-212.89
0.59
-23.29
33.16
1.02
-12.14
-42.17
6.83
28.05
12.24
12.55
-1.9
-36.57
1.84
-7.72
-5.9
9.37
41.77
-43.48
9.61
1.12
-17.28
-35.48
47.01
97.31
-12.86
30.02
17.38
-5.63
-275.85
6.4
-10.2
9.47
185.97
-41.73
-3.78
-77.01
1.5
-21
17.27
-177.42
35.28
-0.15
22.78
3.57
-11.89
11.45
-7.25
8.76
1.4
-16.32
0.09
0.93
97.78
5.16
-10.54
-25.11
-6.5
8.89
-15.1
5.93
39.94
-33.35
-31.91
-3.2
6.35
-12.21
34.36
-55.99
8.73
9.59
-10.63
-32.85
4.07
166.63
9.94
-10.38
-8.72
8.02
39.09
-1.25
7.02
-26.76
0.73
6.44
2.19
-15.33
-14.63
-35.31
20.62
3.37
35.53
-52.93
-6.18
-150.78
34.6
-29.47
-13.66
11.2
65.72
24.16
-0.89
16.66
2.09
0.99
-28.01
-95.78
23.09
21.71
-80.54
-0.09
14.59
17.17
35.66
-12.89
5.63
-11.6
-53.55
-10.05
-14.58
74.53
33.8
34.86
-17.05
-2.5
-35.97
7.67
-11.1
-6.02
-26.93
-16.94
30.07
-4.21
-23.53
0.5
24.56
23.99
-16.85
30.75
-1.29
-45.82
0.45
-3.28
17.03
-3.36
-0.7
-5.31
44.43
2.94
-57.47
101.34
-12.68
0.72
-2.36
51.1
-3.59
33.98
-10.23
7.36
20.48
111.05
-23.69
17.37
-20.52
-43.53
11.26
-1.26
53.35
-3.88
0.84
-57.9
-95.45
-12.24
29.59
29.5
-1.94
-105.32
-78.68
-9.17
-27.71
23.43
4.39
-82.62
-21.78
33.78
3.27
-47.63
30.4
7.19
-235.11
-6.97
61.4
-39.56
14.53
-18.24
109.58
26.18
-39.26
15.75
-14.81
-7.72
93.85
-85.18
-4.6
-19.67
-2.73
-17.77
143.62
10.41
-11.51
7.46
5.87
12.35
3.28
-80.29
15.02
55.89
-17.46
-31.64
-3.71
6.76
-9.85
-58.65
17.15
-15.95
-20.9
-6.85
37.67
-370.19
123.29
-3.1
-13.51
0.43
-4.61
-1.88
-1.47
-14.88
-106.29
6.13
-58.97
-8.8
-58.09
50.09
6.87
5.64
-4.52
-25.75
15.19
32.41
2.5
11.69
25.8
10.45
-153.49
33.57
-9.46
5.29
-13.12
-9.4
-6.29
20.45
-11.6
50.19
-27.99
-111.68
-13.08
73.76
-5.06
-0.03
76.61
-2.23
-20.88
-22.61
-4.41
37.89
-19.88
-6.2
30.84
-8.13
-12.26
36.16
16.44
-1.89
6.01
-7.76
2.79
10.42
12.2
10.85
-99.27
-8.23
-9.73
51.5
-9.14
-71.92
81.89
13.15
2.21
-50.83
15.27
-35.38
8.44
71.54
55.36
49.39
-32.33
39.96
12.43
14.79
13.19
38.96
4.76
165.42
-52
12.83
-5.88
-69.47
98.83
-20.43
-8.3
5.11
-41.75
57.4
-4.07
-100.88
-3.51
3.24
-65.52
99.07
-14.66
47.07
-28.56
-51.16
6.45
-8.55
-18.88
12.85
18.14
-8.64
0.44
-6.46
9.97
-17.41
-13.45
7.01
44.92
108.38
2.11
64.38
-9.54
6.42
29.44
8.41
1.28
-9.29
21.26
-5.72
-7.91
20.28
-54.56
6.7
117.63
29.59
-1.91
99.96
-2.61
-0.53
-29.97
24.71
49.3
-66.85
10.02
95.98
3.66
11.08
17.86
-17.95
-0.72
9.55
33.77
1.59
-7.28
-63.8
6.62
24.57
54.37
-35.14
5.58
42.26
19.15
-10.85
-0.33
9.14
159.31
-0.29
-17.49
165.69
-11.75
23.86
-39.75
60.16
59.76
-63.58
-3.51
117.93
9.49
0.75
16.81
66.01
33.63
-9.9
-9.84
14.46
7.58
11.58
4.8
17.81
-67.73
6.95
84.02
90.34
12.96
-52.7
-9.9
-66.58
25.08
-94.39
-80.52
14.59
51.73
1.81
-71.17
26.59
-25.98
-5.64
-66.62
-8.36
13.04
-12.86
-10.61
21.16
1.46
-8.72
48.57
3.92
-55.2
94.95
-83.87
10.18
52.62
10.33
154.45
-139.14
-3.62
56
56.34
-2.68
45.84
-25.97
-0.71
-2.87
52.47
47.49
-3.12
33.36
14.99
-28.03
9.34
7.44
45.73
-7.22
-2.1
-9.02
2.6
-41.43
29.17
-20.2
15.5
-9.63
4.34
-4.56
47.43
-14.15
-30.1
-10.33
40.27
-49.56
84.16
114.29
-32.06
8.53
6.01
110.64
1.42
0.23
-11.06
-73.11
6.51
68.83
-5.04
-10.72
51.86
15.92
14.71
57.25
32.35
7.08
1.75
52.5
-7.75
24.7
-11.21
23.46
-39.12
14.16
24.88
-10.65
3.08
-50.01
26.34
-5.62
35.22
-10.34
-13.9
-2.37
-168.78
-7.45
-6.29
51.47
-9.29
-104.52
3.72
-24.56
19.64
70.37
-35.54
0.1
15.05
52.93
-10.58
-6.4
-12.09
-3.63
29.9
62.53
80.62
51.03
-2.86
-8.91
2.88
-28.91
-18.38
-9.57
2.81
-19.21
-13.92
9.15
-0.49
-18.76
23.28
45.91
-1.56
-3.93
4.6
-0.68
-39.5
1.7
-84.15
5.23
-6.33
11.95
-10.21
106.77
-7.76
16.61
15
11.35
0.55
241.43
14.45
-11.84
2.46
52.19
-54.71
0.21
-84.8
-24.85
-191.68
-138.98
5.57
-9.17
7.22
-17.44
95.3
-23.86
12.14
24.95
4.46
-21.59
-8.53
36.51
-14.62
2.35
14.94
-0.71
2.6
-9.76
9.46
6.48
-8.31
60.92
104.65
0.89
10.67
-5.2
-138
28.53
46.25
-0.23
17.31
-131.03
-7.85
5.16
-90.48
12.34
13.44
-30.42
2.07
4.13
-2.72
34
33.5
-2.23
77.2
24.5
101.7
72.03
8.19
-16.4
-21.82
4.66
-1.98
32.73
0.59
-6.86
32.43
30.31
18.05
49.85
-135.54
-10.7
-10.93
21.41
-9.78
-31.44
-36.45
-155.02
10.45
7.41
-8.51
-70.62
-7.67
-51.18
33.81
-0.05
7.93
-5.73
-59.23
12.92
43.4
-79.09
-60.86
4.74
9.22
0.19
-17.57
-20.84
-2.64
-63.18
4.18
-2.87
2.51
5.2
1.85
-15.41
65.53
30.94
-2.34
-3.96
-57.37
30.84
-26.13
-35.64
204.93
49.13
15.69
-4.63
62.15
-129.58
-1.78
3.28
16.52
-2.08
-5.7
-11.88
-10.35
2.3
37.05
9.95
-9.82
13.09
53.26
10.68
-11.93
12.74
-21.31
74.14
-12.48
7.56
-53.65
-4.5
-47.78
4.88
-5.74
-5.62
44.79
13.78
7.52
72.34
19.31
8.92
-1.46
-1.86
44.29
50.52
-71.94
86.9
-2.5
-11.27
-79.75
-11.75
8.56
6.81
-2.82
-16.73
0.05
-10.19
5.75
8.57
27.58
-74.91
0.62
-6.74
78.44
6.01
6.05
15.21
-29.08
-9.23
20.89
-21.02
15.42
0.25
27.67
-1.49
42
14.48
-31.3
-14.45
-35.05
-63.47
-10.35
79.93
-9.08
35.53
-54.83
-6.29
-17.62
-14.11
-5.77
28.8
8.41
-15.42
1.45
-8.88
4.39
-27.81
-18.93
53.49
66.06
-6.01
11.85
81.49
69.15
-3.3
10.48
-3.11
42.84
1.72
72.78
7.37
77.89
-11.47
7.52
24.83
1.88
19.32
32.39
-1.74
5.19
-30.14
2.84
2.88
-144.78
-7.92
94.69
-16.23
48.97
1.98
-15.92
-0.95
2.34
48.62
0.07
-15.86
36.02
-13.49
1.54
-0.14
-95.68
0.88
-3.87
1.83
-27.45
-11.25
-60.35
0.68
-1.29
-15.88
0.14
13.24
-5.82
15.71
-4.11
4.82
-36.37
-9.72
-25.13
145.71
10.19
10.3
61.22
-22.31
-66.25
5.56
81.66
-155.61
-12.25
3.32
-13.85
13.58
0.46
6.75
-135.3
-148.23
-10.53
174.53
-65.84
0.2
3.2
-141.87
5.79
-17.09
9.94
0.69
11.3
-199.35
5.55
7.79
-17.34
3.14
-117.71
-8.73
64.49
-24.08
11.35
-21.21
-19.76
75.39
-10.63
12.4
1.33
-22.89
-26.06
13.47
-5.78
-54.76
-12.64
35.98
24.1
-11.15
-103.12
-76.51
-10.21
5.09
-0.28
-37.87
-14.75
65.57
-0.95
-92.86
17.54
16.89
15.86
82.29
-4.47
-9.04
-45.27
8.57
-32.99
-52.2
-31.05
-72.69
-27.56
111.77
-13.22
23.05
20.35
32.18
2
9.75
79.88
-15.48
-0.42
-6.8
9.73
4.94
-8.83
1.53
-36.3
-121.47
-56.94
3.21
-35.66
-41.27
-11.74
41.73
-1.98
97.25
-50.82
-8.15
-9.78
-4.85
-0.11
5.09
7.93
55
-34.94
10.98
-32.96
12.11
4.68
-78.35
-49.27
-28.38
-21.57
6.96
2.33
-87.51
-13.47
-55.39
24.92
-5.33
64.11
46.71
14.79
-23.6
13.28
4.15
103.25
3.6
-6.22
15.79
25.95
63.57
-38.41
-36.49
-6.81
9.92
-121.41
-40.03
-5.57
5.49
7.74
-44.11
-45.68
7.91
0.36
-27.05
70.9
-28.57
20.62
-23.51
9.67
38.81
48.7
-101.64
-6.83
-2.74
12.12
18.11
63.99
20.19
-86.11
24.82
1.35
28.4
71.5
2.71
-8.12
-26.65
8.78
49.12
-6.12
1.46
55.91
-41.89
57.52
-9.72
-12.65
-3.79
-3.84
31.86
5.86
-13.21
22.02
-3.15
-66.59
-12.21
-16
-4.6
5.18
40.08
5.83
-63.57
13.16
17.58
-23.74
3.41
-12.8
-4.38
-7.47
14.53
32.98
9.5
-4.67
-2.22
-35.11
-7.76
-12.46
-40.61
43.64
10.5
-20.34
-2.49
-8.66
0.32
-35.45
3.38
-39.83
-2.31
-30.76
5.17
2.59
1.31
-19.97
37.81
-68.58
15.63
-37.98
71.78
-19.4
31.23
16.88
54.88
7.16
-33.19
-10.93
-15.97
1.43
-152.47
100.48
7.32
-35.98
11.54
-56.37
-74.22
-1.06
22.96
2.24
28.68
5.02
12.27
-43.87
51.62
-22.24
-54.05
-3.64
12.54
5.17
32.72
-116.34
-10.16
12.62
-8.97
-113.41
-1.17
-6.99
2.52
7.45
-85.7
157.33
-9.51
-4.49
-10.54
7.6
-2.37
16.67
87.37
123.18
-41.16
11.08
36.18
-46.03
47.3
3.15
9.84
-67.7
-37.77
-24.38
12.76
-3.12
62.48
10.63
5.33
6.75
-15.4
-55.44
-33.79
-55.19
2.11
1.91
12.87
-12.84
34.68
2.16
14.78
-17.29
-9.91
-8.74
-6.77
9.07
61.4
-134.75
12.47
-42.68
-10.24
-38.93
50.21
38.9
-1.47
28.76
-7.8
-35.62
-108.37
-107.3
5.53
-0.25
11.35
-27.93
-12.77
-80.33
-58.57
65.48
-28.48
13.94
10.9
57.32
43.78
7.02
5.64
38.29
11.21
-7
-50.77
-2.23
271.09
-7.06
-14.55
-21.59
49.36
76.09
4.67
-52.74
-109.55
33.34
10.45
9.81
-0.81
9.44
89.35
118.21
-7.46
26.87
-4.54
-18.04
-9.8
-201.6
-16.29
27.99
-43.15
-12.78
15.92
263.74
4.7
6.91
18.1
-180.78
-6.33
-9.75
8.27
18.78
7.75
43.46
-21.57
-32.57
27.04
2.04
44.37
22.74
37.32
38.55
70.27
45.71
-1.64
-20.84
-64.99
29.54
5.7
-4.81
7.73
57.48
-28.33
-0.44
-54.65
56.44
6.22
-4.82
19.78
-23.18
13.86
7.99
-6.95
7.68
-23.48
-3.93
87.56
-4.35
25.46
31.97
-39.43
4.68
9.62
209.38
-6.88
9.02
-8.06
-44.93
73.41
-5.19
-44.11
22.34
-66.72
16.69
18.21
71.26
30.61
0.62
12.23
3.69
114.39
96.44
-12.68
11.62
-27.7
-5.61
-6.84
31.69
